Energy,f’,f’’
1000,-30.16965,27.94595
1100,-28.07165,26.43858
1200,-26.36502,24.57545
1300,-25.13891,22.88076
1400,-24.22934,21.33656
1500,-23.58269,19.92382
1600,-23.15131,18.63012
1700,-22.90836,17.44294
1800,-22.83631,16.35172
1900,-22.92647,15.34721
2000,-23.42604,14.45552
2100,-23.86398,13.63572
2200,-24.68753,12.89876
2300,-25.54687,12.2273
2400,-26.73421,11.60685
2500,-28.45748,11.03223
2600,-31.32846,10.49891
2689,-37.14799,10.05573
2694,-37.73254,10.03166
2699,-38.37136,10.00767
2700,-38.50638,10.00288
2704,-39.07296,9.983768
2709,-39.8476,9.959949
2714,-40.70786,9.936215
2719,-41.66951,9.912564
2724,-42.75219,9.888997
2729,-43.98123,9.865511
2734,-45.38929,9.842109
2739,-47.01996,9.818788
2744,-48.93215,9.795548
2749,-51.20866,9.772389
2754,-53.96926,9.749312
2759,-57.3969,9.726315
2764,-61.78758,9.703398
2769,-67.66721,9.680559
2774,-76.10204,9.657801
2779,-89.83134,9.63512
2784,-121.084,9.612519
2789,-124.4476,112.456
2794,-79.30419,101.1891
2799,-59.5715,91.44521
2800,-56.77449,89.65852
2804,-47.87098,82.99573
2809,-40.26799,75.64818
2811,-37.97924,72.98086
2814,-35.14656,69.24262
2816,-33.59079,66.9129
2819,-31.66781,63.64346
2821,-30.61889,61.60352
2824,-29.33973,58.73751
2826,-28.65676,56.94701
2829,-27.85063,54.42831
2831,-27.44124,52.8531
2834,-26.9945,50.63479
2836,-26.79633,49.24608
2839,-26.62984,47.2881
2841,-26.60031,46.06095
2844,-26.6651,44.32925
2846,-26.77567,43.24298
2849,-27.03544,41.70847
2851,-27.26808,40.74492
2854,-27.70246,39.38276
2856,-28.04768,38.52683
2859,-28.6484,37.31574
2861,-29.10468,36.55408
2864,-29.87533,35.47578
2866,-30.44911,34.79729
2869,-31.40644,33.83606
2871,-32.11425,33.23085
2874,-33.29214,32.37316
2876,-34.16382,31.83299
2879,-35.62142,31.06715
2881,-36.7086,30.58466
2884,-38.54746,29.90058
2886,-39.93944,29.46962
2891,-44.20617,28.47361
2896,-50.22847,27.58447
2900,-57.46263,26.94284
2901,-59.86667,26.7915
2906,-81.44388,26.08556
2911,-84.6063,96.18852
2916,-52.38234,84.51274
2921,-39.21894,75.04675
2926,-32.10177,67.3307
2931,-27.97454,61.00992
2936,-25.56649,55.80873
2941,-24.22531,51.51328
2946,-23.57627,47.95528
2951,-23.38972,45.00299
2956,-23.51866,42.55173
2961,-23.89247,40.51899
2966,-24.39402,38.83875
2971,-25.00535,37.45858
2976,-25.69648,36.33647
2981,-26.44691,35.43914
2986,-27.24301,34.74002
2991,-28.07572,34.2183
2996,-28.93956,33.85771
3000,-29.65088,33.67687
3001,-29.73406,33.58202
3006,-30.14973,33.15042
3100,-24.91087,31.66025
3200,-22.3387,29.90698
3300,-21.02575,28.37274
3329,-20.89316,27.96364
3334,-20.88593,27.89462
3339,-20.88422,27.82603
3344,-20.88852,27.75787
3349,-20.89943,27.69014
3354,-20.91768,27.62283
3359,-20.94415,27.55595
3364,-20.97996,27.48948
3369,-21.0265,27.42342
3374,-21.08557,27.35778
3379,-21.15949,27.29254
3384,-21.25143,27.22771
3389,-21.36574,27.16328
3394,-21.50872,27.09925
3399,-21.68989,27.03561
3400,-21.73192,27.02292
3404,-21.92472,26.97236
3409,-22.24078,26.9095
3414,-22.69515,26.84703
3419,-23.44062,26.78494
3424,-25.27588,26.72323
3429,-24.58205,31.4698
3434,-22.99744,31.3927
3439,-22.17705,31.31616
3444,-21.60513,31.24016
3449,-21.15879,31.16471
3454,-20.78871,31.0898
3459,-20.47014,31.01543
3464,-20.18885,30.94159
3469,-19.93585,30.86828
3474,-19.70515,30.79549
3479,-19.49252,30.72322
3484,-19.29486,30.65146
3489,-19.10981,30.58021
3494,-18.93565,30.50947
3499,-18.77092,30.43923
3500,-18.739,30.42524
3504,-18.61447,30.36948
3509,-18.46537,30.30023
3514,-18.32285,30.23146
3519,-18.18625,30.16318
3524,-18.05504,30.09538
3600,-16.51104,29.12153
3700,-14.94593,27.94174
3800,-13.50003,26.86154
3900,-12.91491,25.77725
3911,-12.88219,25.66371
3916,-12.87027,25.61246
3921,-12.86041,25.56144
3926,-12.8528,25.51063
3931,-12.84766,25.46005
3936,-12.84526,25.40969
3941,-12.84593,25.35954
3946,-12.85009,25.30962
3951,-12.85825,25.25991
3956,-12.87107,25.21042
3961,-12.88941,25.16115
3966,-12.91444,25.11208
3971,-12.94777,25.06323
3976,-12.99171,25.0146
3981,-13.04977,24.96617
3986,-13.12764,24.91795
3991,-13.23546,24.86994
3996,-13.39423,24.82214
4000,-13.59249,24.78405
4001,-13.66011,24.77455
4006,-14.32675,24.72716
4011,-14.06465,26.44799
4016,-13.47345,26.39405
4021,-13.16361,26.34041
4026,-12.94546,26.28705
4031,-12.77372,26.23397
4036,-12.63027,26.18119
4041,-12.50594,26.12868
4046,-12.39552,26.07645
4051,-12.2957,26.0245
4056,-12.20426,25.97283
4061,-12.11967,25.92144
4066,-12.04078,25.87032
4071,-11.96672,25.81947
4076,-11.89685,25.76888
4081,-11.83065,25.71858
4086,-11.76769,25.66853
4091,-11.70764,25.61875
4096,-11.65022,25.56923
4100,-11.60603,25.5298
4101,-11.59521,25.51998
4106,-11.54222,25.47098
4200,-10.83648,24.59625
4220,-10.74439,24.421
4225,-10.72479,24.37775
4230,-10.70669,24.33473
4235,-10.69019,24.29194
4240,-10.67541,24.24937
4245,-10.66251,24.20702
4250,-10.65165,24.16489
4255,-10.64309,24.12298
4260,-10.63711,24.08129
4265,-10.63409,24.03982
4270,-10.63454,23.99856
4275,-10.63913,23.95752
4280,-10.64879,23.91669
4285,-10.66488,23.87608
4290,-10.68946,23.83568
4295,-10.72585,23.79548
4300,-10.78001,23.7555
4305,-10.86421,23.71573
4310,-11.01141,23.67616
4315,-11.39368,23.6368
4320,-11.23132,24.63298
4325,-10.87896,24.59375
4330,-10.6902,24.55473
4335,-10.55455,24.51591
4340,-10.44569,24.47728
4345,-10.3531,24.43887
4350,-10.27149,24.40064
4355,-10.19783,24.36262
4360,-10.13021,24.3248
4365,-10.06736,24.28717
4370,-10.00837,24.24974
4375,-9.952591,24.2125
4380,-9.899534,24.17546
4385,-9.848813,24.13861
4390,-9.800133,24.10195
4395,-9.753242,24.06549
4400,-9.707946,24.02921
4405,-9.664083,23.99312
4410,-9.621519,23.95723
4415,-9.580131,23.92152
4500,-8.517166,23.2932
4600,-7.946021,22.55697
4700,-7.480018,21.86882
4800,-7.088398,21.22527
4900,-6.753293,20.62346
5000,-6.46297,20.06101
5100,-6.208864,19.53597
5200,-5.984254,19.04677
5300,-5.43917,18.53337
5400,-5.227856,18.03572
5500,-5.039197,17.55877
5600,-4.860345,17.10103
5700,-4.712772,16.66143
5800,-4.578471,16.23933
5900,-4.440426,15.83232
6000,-4.333619,15.44064
6100,-4.23879,15.06376
6200,-4.154841,14.70092
6300,-4.080804,14.35141
6400,-4.015816,14.01457
6500,-3.959109,13.68975
6600,-3.909996,13.37638
6700,-3.867865,13.07391
6800,-3.832161,12.78182
6900,-3.81406,12.50007
7000,-3.790006,12.22826
7100,-3.77097,11.96547
7200,-3.75659,11.71129
7300,-3.746535,11.46534
7400,-3.74051,11.22726
7500,-3.738243,10.9967
7600,-3.739491,10.77334
7700,-3.744035,10.55686
7800,-3.751674,10.34699
7900,-3.762229,10.14345
8000,-3.77554,9.945971
8100,-3.803668,9.755015
8200,-3.822305,9.569798
8300,-3.843269,9.389961
8400,-3.866468,9.215294
8500,-3.891834,9.045591
8600,-3.919337,8.880663
8700,-3.951521,8.720432
8800,-3.983783,8.564673
8900,-4.027172,8.413172
9000,-4.060479,8.267594
9100,-4.095289,8.125981
9200,-4.131571,7.988183
9300,-4.169289,7.85406
9400,-4.208416,7.723477
9500,-4.248932,7.596307
9600,-4.290821,7.472426
9700,-4.334074,7.351722
9800,-4.378689,7.234078
9900,-4.424668,7.119392
10000,-4.472025,7.007559
10100,-4.521984,6.8985
10200,-4.5722,6.79211
10300,-4.623845,6.688296
10400,-4.676952,6.586974
10500,-4.731563,6.488061
10600,-4.787721,6.391478
10700,-4.845482,6.297152
10800,-4.90491,6.205008
10900,-4.966072,6.114979
11000,-5.029052,6.026996
11100,-5.09394,5.940998
11200,-5.160836,5.856922
11300,-5.229859,5.774709
11400,-5.301136,5.694304
11500,-5.374814,5.61565
11600,-5.451057,5.538697
11700,-5.53005,5.463394
11800,-5.612005,5.389691
11900,-5.697159,5.317543
12000,-5.785788,5.246904
12100,-5.878891,5.177736
12200,-5.975457,5.110007
12300,-6.076564,5.043662
12400,-6.182706,4.978662
12500,-6.294448,4.91497
12600,-6.412446,4.85255
12700,-6.539481,4.791411
12800,-6.672606,4.731478
12900,-6.81494,4.672717
13000,-6.967948,4.615094
13100,-7.133473,4.55858
13200,-7.313881,4.503146
13300,-7.512291,4.448764
13400,-7.732912,4.395406
13500,-7.98164,4.343045
13600,-8.267077,4.291656
13700,-8.602495,4.241215
13800,-9.009974,4.191696
13900,-9.531746,4.143079
14000,-10.25445,4.095354
14100,-11.44796,4.048484
14116,-11.73611,4.041063
14121,-11.83605,4.038748
14126,-11.9416,4.036435
14131,-12.0534,4.034125
14136,-12.17229,4.031816
14141,-12.29919,4.02951
14146,-12.43525,4.027205
14151,-12.58189,4.024903
14156,-12.74088,4.022603
14161,-12.91446,4.020305
14166,-13.10559,4.018008
14171,-13.31813,4.015715
14176,-13.55756,4.013422
14181,-13.83155,4.011133
14186,-14.15173,4.008845
14191,-14.53675,4.006559
14196,-15.01948,4.004275
14200,-15.51847,4.00245
14201,-15.66662,4.001993
14206,-16.65049,3.999713
14211,-18.77038,3.997435
14216,-18.78389,10.08086
14221,-16.65016,10.07502
14226,-15.65602,10.06917
14231,-15.00018,10.06333
14236,-14.50968,10.05749
14241,-14.11757,10.05166
14246,-13.79081,10.04583
14251,-13.51066,10.04001
14256,-13.26546,10.0342
14261,-13.04736,10.02838
14266,-12.85099,10.02258
14271,-12.67238,10.01677
14276,-12.50859,10.01097
14281,-12.35734,10.00518
14286,-12.21684,9.99939
14291,-12.08567,9.993605
14296,-11.96268,9.987825
14300,-11.86949,9.983204
14301,-11.84688,9.98205
14306,-11.73749,9.976278
14311,-11.63383,9.970512
14400,-10.35685,9.868639
14500,-9.516752,9.755883
14600,-8.939369,9.6449
14700,-8.505151,9.535655
14800,-8.16237,9.42811
14900,-7.888709,9.322287
15000,-7.658689,9.218141
15100,-7.466952,9.115597
15200,-7.306787,9.014625
15300,-7.173581,8.91519
15400,-7.064157,8.817265
15500,-6.976358,8.720819
15600,-6.908837,8.625822
15700,-6.860932,8.53225
15800,-6.832641,8.440072
15900,-6.824669,8.349263
16000,-6.83859,8.259796
16100,-6.877154,8.171646
16200,-6.944902,8.084788
16300,-7.049377,7.999199
16400,-7.2038,7.914853
16500,-7.433844,7.831727
16600,-7.799659,7.749799
16687,-8.38006,7.67949
16692,-8.42899,7.675477
16697,-8.480801,7.671465
16700,-8.513392,7.66906
16702,-8.535784,7.667459
16707,-8.59438,7.663453
16712,-8.657021,7.659451
16717,-8.724303,7.655453
16722,-8.796968,7.651456
16727,-8.875847,7.647463
16732,-8.962132,7.643472
16737,-9.057227,7.639484
16742,-9.163163,7.635499
16747,-9.282553,7.631518
16752,-9.419337,7.627538
16757,-9.579187,7.623562
16762,-9.771396,7.619589
16767,-10.01229,7.615618
16772,-10.33435,7.611651
16777,-10.82117,7.607686
16782,-11.84297,7.603724
16787,-12.00667,10.67894
16792,-10.87152,10.67369
16797,-10.35719,10.66844
16800,-10.14179,10.6653
16802,-10.0203,10.6632
16807,-9.769053,10.65796
16812,-9.568419,10.65272
16817,-9.401421,10.64749
16822,-9.258243,10.64225
16827,-9.132984,10.63703
16832,-9.021562,10.6318
16837,-8.921278,10.62658
16842,-8.83007,10.62137
16847,-8.746397,10.61615
16852,-8.669162,10.61095
16857,-8.597394,10.60574
16862,-8.530422,10.60054
16867,-8.467602,10.59534
16872,-8.408496,10.59014
16877,-8.352654,10.58495
16882,-8.299778,10.57976
16900,-8.129698,10.56111
17000,-7.511731,10.4583
17100,-7.159916,10.35683
17200,-6.951234,10.2567
17300,-6.866171,10.15787
17396,-6.971739,10.06424
17400,-6.983147,10.06037
17401,-6.986144,10.0594
17406,-7.002083,10.05456
17411,-7.019719,10.04973
17416,-7.039268,10.0449
17421,-7.060961,10.04007
17426,-7.085114,10.03524
17431,-7.112077,10.03042
17436,-7.142334,10.0256
17441,-7.176453,10.02079
17446,-7.215215,10.01597
17451,-7.25967,10.01116
17456,-7.311209,10.00636
17461,-7.371923,10.00155
17466,-7.444868,9.996756
17471,-7.535125,9.991958
17476,-7.65158,9.987165
17481,-7.812819,9.982373
17486,-8.068208,9.977587
17491,-8.67605,9.972803
17496,-8.467931,11.52245
17500,-8.0402,11.51846
17501,-7.972044,11.51746
17506,-7.721222,11.51247
17511,-7.549784,11.50749
17516,-7.418097,11.50251
17521,-7.310483,11.49753
17526,-7.218964,11.49256
17531,-7.13897,11.48759
17536,-7.067708,11.48262
17541,-7.003218,11.47765
17546,-6.944208,11.47269
17551,-6.889657,11.46773
17556,-6.838875,11.46277
17561,-6.791255,11.45782
17566,-6.74639,11.45287
17571,-6.703905,11.44792
17576,-6.663493,11.44297
17581,-6.624948,11.43803
17586,-6.58804,11.43309
17591,-6.552629,11.42816
17600,-6.492172,11.41928
17700,-5.98666,11.32125
17800,-5.628214,11.22437
17900,-5.338137,11.1286
18000,-5.089815,11.03394
18100,-4.87059,10.94036
18200,-4.673279,10.84785
18300,-4.493332,10.7564
18400,-4.32763,10.66598
18500,-4.199218,10.5769
18600,-4.056322,10.48991
18700,-3.922326,10.40394
18800,-3.799148,10.31903
18900,-3.680114,10.23511
19000,-3.568183,10.15216
19100,-3.461235,10.07017
19200,-3.359529,9.989116
19300,-3.262632,9.908995
19400,-3.170167,9.829783
19500,-3.081805,9.75147
19600,-2.997256,9.67404
19700,-2.916262,9.597479
19800,-2.838594,9.521775
19900,-2.764042,9.446913
20000,-2.692421,9.37288
20100,-2.623562,9.299664
20200,-2.557311,9.227251
20300,-2.493528,9.155633
20400,-2.432081,9.084793
20500,-2.372854,9.014722
20600,-2.315737,8.945408
20700,-2.260628,8.876839
20800,-2.207434,8.809006
20900,-2.156068,8.741896
21000,-2.106448,8.675498
21100,-2.058499,8.609804
21200,-2.01215,8.544803
21300,-1.967335,8.480484
21400,-1.923991,8.416838
21500,-1.88206,8.353855
21600,-1.841487,8.291526
21700,-1.802221,8.22984
21800,-1.764225,8.168793
21900,-1.741187,8.108877
22000,-1.705783,8.049719
22100,-1.671481,7.991183
22200,-1.638253,7.933261
22300,-1.607117,7.87595
22400,-1.575894,7.819234
22500,-1.545627,7.763105
22600,-1.516283,7.707555
22700,-1.487831,7.652575
22800,-1.482091,7.598731
22900,-1.455763,7.545856
23000,-1.430214,7.493552
23100,-1.405416,7.441813
23200,-1.381344,7.39063
23300,-1.357975,7.339995
23400,-1.335285,7.289899
23500,-1.313254,7.240335
23600,-1.291859,7.191295
23700,-1.27108,7.142771
23800,-1.2509,7.094756
23900,-1.231298,7.047243
24000,-1.212258,7.000224
24100,-1.193761,6.953692
24200,-1.175792,6.907641
24300,-1.158335,6.862064
24400,-1.141375,6.816954
24500,-1.124895,6.772304
24600,-1.108884,6.728107
24700,-1.093326,6.68436
24800,-1.078209,6.641054
24900,-1.06352,6.598182