Energy,f’,f’’
1000,-6.642362,8.734132
1100,-6.545239,7.736066
1200,-6.562346,6.902965
1300,-6.669322,6.199037
1400,-6.892981,5.60253
1500,-7.157197,5.093545
1600,-7.499603,4.653351
1700,-7.936108,4.269691
1800,-8.504502,3.933748
1900,-9.257581,3.637491
2000,-10.32659,3.374538
2100,-12.09052,3.139908
2125,-12.76864,3.085186
2130,-12.92485,3.074418
2135,-13.0896,3.063708
2140,-13.26389,3.053056
2145,-13.44885,3.042461
2150,-13.64588,3.031922
2155,-13.85664,3.02144
2160,-14.08321,3.011013
2165,-14.32813,3.000642
2170,-14.5947,2.990325
2175,-14.88713,2.980064
2180,-15.2111,2.969856
2185,-15.57436,2.959703
2190,-15.98809,2.949602
2195,-16.46899,2.939555
2200,-17.04408,2.929561
2205,-17.76099,2.919619
2209,-18.49869,2.911702
2210,-18.71713,2.909728
2214,-19.81165,2.901853
2215,-20.16741,2.899889
2219,-22.35715,2.892055
2220,-23.34879,2.890102
2224,-24.20207,11.49237
2225,-22.9341,11.48189
2229,-20.45737,11.44014
2230,-20.08195,11.42975
2234,-18.96495,11.38841
2235,-18.74899,11.37813
2239,-18.03878,11.33719
2240,-17.89069,11.327
2244,-17.38221,11.28646
2245,-17.27242,11.27638
2249,-16.88727,11.23622
2250,-16.8027,11.22624
2254,-16.50317,11.18647
2255,-16.43698,11.17658
2259,-16.20257,11.1372
2260,-16.15098,11.1274
2264,-15.97013,11.0884
2265,-15.93098,11.07869
2269,-15.79757,11.04006
2270,-15.7699,11.03045
2274,-15.68187,10.99219
2275,-15.66562,10.98267
2279,-15.62492,10.94477
2280,-15.62115,10.93534
2284,-15.63488,10.8978
2285,-15.64629,10.88846
2289,-15.7306,10.85127
2290,-15.76305,10.84202
2294,-15.95426,10.80518
2295,-16.02175,10.79602
2299,-16.41843,10.75953
2300,-16.56531,10.75045
2304,-17.63224,10.7143
2305,-18.21758,10.7053
2309,-17.66007,14.91494
2310,-17.13339,14.90224
2314,-15.91392,14.85168
2315,-15.70542,14.83909
2319,-15.03929,14.78901
2320,-14.90123,14.77654
2324,-14.42043,14.72693
2329,-13.9293,14.66542
2334,-13.51664,14.6045
2339,-13.15794,14.54414
2344,-12.83918,14.48433
2349,-12.55155,14.42509
2354,-12.28905,14.36638
2359,-12.04746,14.30822
2364,-11.82363,14.25059
2369,-11.61519,14.19349
2374,-11.42026,14.13691
2379,-11.23736,14.08084
2384,-11.06527,14.02529
2389,-10.90302,13.97023
2394,-10.74977,13.91568
2399,-10.60486,13.86161
2400,-10.57681,13.85086
2404,-10.46768,13.80803
2434,-9.784998,13.49646
2439,-9.692221,13.44613
2444,-9.605075,13.39624
2449,-9.52355,13.34679
2454,-9.447677,13.29778
2459,-9.377565,13.24919
2464,-9.313403,13.20103
2469,-9.255463,13.15329
2474,-9.204151,13.10596
2479,-9.160028,13.05904
2484,-9.123878,13.01253
2489,-9.096794,12.96642
2494,-9.080338,12.9207
2499,-9.076793,12.87538
2500,-9.077911,12.86636
2504,-9.089654,12.83045
2509,-9.124594,12.7859
2514,-9.19166,12.74173
2519,-9.311273,12.69793
2524,-9.536001,12.65451
2529,-10.10505,12.61146
2534,-10.07569,14.47291
2539,-9.315393,14.42696
2544,-8.927536,14.3814
2549,-8.649334,14.33624
2554,-8.425249,14.29147
2559,-8.23385,14.24708
2564,-8.064596,14.20307
2569,-7.911468,14.15944
2574,-7.770727,14.11618
2579,-7.639854,14.07329
2584,-7.517093,14.03076
2589,-7.401159,13.98859
2594,-7.291067,13.94678
2599,-7.186069,13.90533
2600,-7.165626,13.89708
2604,-7.085554,13.86422
2609,-6.989048,13.82347
2614,-6.896139,13.78305
2619,-6.806505,13.74298
2624,-6.719854,13.70324
2629,-6.635954,13.66383
2700,-5.655754,13.13838
2800,-4.668425,12.49505
2900,-3.682396,11.93829
3000,-2.953542,11.37858
3100,-2.435093,10.82277
3200,-2.011164,10.30709
3300,-1.664134,9.827757
3400,-1.373285,9.382596
3500,-1.129205,8.967822
3600,-0.9226766,8.580647
3700,-0.7476739,8.218616
3800,-0.5989958,7.879554
3900,-0.472476,7.561515
4000,-0.3647376,7.262764
4100,-0.2730123,6.981738
4200,-0.195011,6.717036
4300,-0.1288249,6.467392
4400,-7.2852679E-02,6.231666
4500,-2.3611208E-02,6.008677
4600,1.5816428E-02,5.797515
4700,4.9729548E-02,5.597317
4800,7.6498426E-02,5.407416
4900,9.8070234E-02,5.227124
5000,0.1150747,5.055795
5100,0.1267739,4.892887
5200,0.1361748,4.737895
5300,0.1424572,4.590232
5400,0.1459841,4.449438
5500,0.1470741,4.315087
5600,0.1460071,4.186788
5700,0.1430298,4.064177
5800,0.1383599,3.946919
5900,0.1321898,3.834704
6000,0.1246899,3.727243
6100,0.1160113,3.624269
6200,0.1062785,3.525531
6300,9.0881988E-02,3.430907
6400,7.9445004E-02,3.340075
6500,6.4451024E-02,3.252852
6600,5.1673565E-02,3.169065
6700,3.833482E-02,3.088496
6800,2.450132E-02,3.01098
6900,1.0232257E-02,2.936364
7000,-4.4198488E-03,2.864502
7100,-1.9408206E-02,2.79526
7200,-3.4691229E-02,2.728511
7300,-5.0232094E-02,2.664134
7400,-6.5997995E-02,2.602018
7500,-8.1960216E-02,2.542057
7600,-9.8093472E-02,2.484151
7700,-0.1143757,2.428208
7800,-0.1307881,2.374137
7900,-0.1473143,2.321856
8000,-0.1639409,2.271286
8100,-0.1814795,2.222356
8200,-0.1982768,2.175004
8300,-0.2151514,2.12915
8400,-0.2321008,2.084733
8500,-0.2491275,2.041691
8600,-0.2662383,1.999969
8700,-0.2834467,1.959513
8800,-0.300776,1.92027
8900,-0.3182632,1.882194
9000,-0.3348483,1.845644
9100,-0.3514055,1.810164
9200,-0.3679336,1.775711
9300,-0.3844321,1.742245
9400,-0.4009009,1.709729
9500,-0.4173409,1.678126
9600,-0.433755,1.647403
9700,-0.450471,1.617534
9800,-0.466864,1.588485
9900,-0.483231,1.560223
10000,-0.4999293,1.532719
10100,-0.5162502,1.505958
10200,-0.5325797,1.479902
10300,-0.5488961,1.454528
10400,-0.5652027,1.429811
10500,-0.581504,1.405728
10600,-0.5978044,1.382258
10700,-0.6141084,1.35938
10800,-0.6304214,1.337073
10900,-0.6467484,1.315319
11000,-0.6639542,1.294106
11100,-0.6803557,1.273427
11200,-0.6967872,1.253248
11300,-0.7132556,1.233554
11400,-0.7297674,1.21433
11500,-0.7463297,1.195558
11600,-0.7629499,1.177227
11700,-0.7796353,1.159321
11800,-0.7963942,1.141828
11900,-0.8132344,1.124734
12000,-0.8301652,1.108028
12100,-0.8471953,1.091697
12200,-0.8643339,1.075731
12300,-0.8815914,1.060117
12400,-0.8989777,1.044847
12500,-0.916504,1.02991
12600,-0.9341815,1.015296
12700,-0.952022,1.000995
12800,-0.9700384,0.9869993
12900,-0.9882435,0.9732994
13000,-1.006652,0.9598868
13100,-1.025612,0.9467546
13200,-1.044472,0.9338948
13300,-1.063581,0.9212989
13400,-1.082958,0.9089599
13500,-1.10262,0.8968706
13600,-1.122587,0.8850242
13700,-1.14288,0.8734145
13800,-1.163522,0.8620346
13900,-1.184537,0.8508788
14000,-1.20595,0.839941
14100,-1.22779,0.8292154
14200,-1.250085,0.8186968
14300,-1.272869,0.8083795
14400,-1.296175,0.7982585
14500,-1.320041,0.7883287
14600,-1.344509,0.7785853
14700,-1.369623,0.7690237
14800,-1.395431,0.7596391
14900,-1.421988,0.7504274
15000,-1.449351,0.741384
15100,-1.477585,0.732505
15200,-1.506762,0.7237864
15300,-1.536961,0.7152242
15400,-1.568271,0.7068148
15500,-1.600792,0.6985542
15600,-1.634634,0.6904392
15700,-1.669923,0.6824662
15800,-1.706804,0.6746319
15900,-1.74544,0.6669331
16000,-1.786018,0.6593666
16100,-1.828757,0.6519293
16200,-1.873911,0.6446184
16300,-1.921775,0.637431
16400,-1.972708,0.6303641
16500,-2.02713,0.6234151
16600,-2.085557,0.6165814
16700,-2.148617,0.6098604
16800,-2.217097,0.6032497
16900,-2.291992,0.5967467
17000,-2.37459,0.5903491
17100,-2.466594,0.5840546
17200,-2.570323,0.5778611
17300,-2.689047,0.5717664
17400,-2.827595,0.5657682
17500,-2.993497,0.5598646
17600,-3.199473,0.5540535
17700,-3.469589,0.5483331
17800,-3.858493,0.5427015
17900,-4.543856,0.5371567
17905,-4.595586,0.5368816
17910,-4.650245,0.5366069
17915,-4.708223,0.5363323
17920,-4.76989,0.536058
17925,-4.835763,0.5357839
17930,-4.906474,0.5355099
17935,-4.982709,0.5352362
17940,-5.065457,0.5349627
17945,-5.155834,0.5346894
17950,-5.255446,0.5344163
17955,-5.366268,0.5341434
17960,-5.491154,0.5338708
17965,-5.634192,0.5335983
17970,-5.801332,0.5333261
17975,-6.002422,0.533054
17980,-6.254395,0.5327822
17985,-6.591977,0.5325105
17990,-7.10353,0.5322391
17995,-8.19194,0.5319679
18000,-8.282978,3.735508
18005,-7.130785,3.733458
18010,-6.60093,3.73141
18015,-6.252527,3.729364
18020,-5.992099,3.72732
18025,-5.784032,3.72528
18030,-5.610548,3.72324
18035,-5.461806,3.721204
18040,-5.331486,3.71917
18045,-5.215569,3.717138
18050,-5.111124,3.715109
18055,-5.016028,3.713081
18060,-4.92879,3.711057
18065,-4.848138,3.709034
18070,-4.77319,3.707014
18075,-4.703132,3.704995
18080,-4.637405,3.70298
18085,-4.575476,3.700967
18090,-4.516902,3.698955
18095,-4.461375,3.696947
18100,-4.40855,3.69494
18200,-3.683474,3.655283
18300,-3.250273,3.616511
18400,-2.93943,3.578598
18500,-2.696783,3.54152
18600,-2.497897,3.505253
18700,-2.329605,3.469773
18800,-2.183974,3.435061
18900,-2.055821,3.401093
19000,-1.941632,3.367848
19100,-1.838817,3.335308
19200,-1.74548,3.303453
19300,-1.660167,3.272266
19400,-1.581733,3.241726
19500,-1.509265,3.211818
19600,-1.442024,3.182525
19700,-1.379398,3.15383
19800,-1.320879,3.125719
19900,-1.266033,3.098175
20000,-1.214495,3.071184
20100,-1.165949,3.044732
20200,-1.120124,3.018806
20300,-1.076781,2.993392
20400,-1.035709,2.968477
20500,-0.9967245,2.944049
20600,-0.9596635,2.920095
20700,-0.9243795,2.896605
20800,-0.8907421,2.873568
20900,-0.8586319,2.850971
21000,-0.8279431,2.828804
21100,-0.798579,2.807057
21200,-0.7704518,2.78572
21300,-0.7434819,2.764785
21400,-0.7175949,2.744239
21500,-0.692724,2.724076
21600,-0.6688075,2.704286
21700,-0.6457884,2.68486
21800,-0.6236143,2.665792
21900,-0.6022357,2.64707
22000,-0.5816079,2.628689
22100,-0.5616887,2.610641
22200,-0.5424391,2.592918
22300,-0.5238228,2.575513
22400,-0.5058051,2.558419
22500,-0.4883544,2.54163
22600,-0.4714407,2.525137
22700,-0.455036,2.508937
22800,-0.4391142,2.493021
22900,-0.4236498,2.477385
23000,-0.4086198,2.462021
23100,-0.3940018,2.446924
23200,-0.3797751,2.432089
23300,-0.3659193,2.417511
23400,-0.2857906,2.403091
23500,-0.2713985,2.38609
23600,-0.2574705,2.369267
23700,-0.2439419,2.352618
23800,-0.2307981,2.336141
23900,-0.218025,2.319834
24000,-0.2056099,2.303694
24100,-0.1935405,2.287719
24200,-0.181805,2.271906
24300,-0.1703924,2.256255
24400,-0.1592916,2.240761
24500,-0.1484925,2.225424
24600,-0.1379855,2.21024
24700,-0.1277611,2.195209
24800,-0.1178106,2.180328
24900,-0.108125,2.165594