Energy,f’,f’’
1000,-6.944886,6.956079
1100,-7.026948,6.148766
1200,-7.222778,5.479874
1300,-7.510138,4.91898
1400,-7.901817,4.443119
1500,-8.427589,4.035985
1600,-9.132936,3.684516
1700,-10.14056,3.378547
1800,-11.76916,3.110322
1842,-12.86662,3.0074
1847,-13.02807,2.995499
1852,-13.19842,2.983671
1857,-13.37868,2.971915
1862,-13.57004,2.96023
1867,-13.77392,2.948617
1872,-13.99203,2.937073
1877,-14.22649,2.925599
1882,-14.47991,2.914195
1887,-14.75562,2.902859
1892,-15.05791,2.891591
1897,-15.39252,2.88039
1900,-15.61193,2.873702
1902,-15.76726,2.869256
1907,-16.19331,2.858189
1909,-16.38158,2.85378
1912,-16.68737,2.847187
1914,-16.90953,2.842805
1917,-17.27619,2.836251
1919,-17.54763,2.831894
1922,-18.00661,2.825379
1924,-18.35668,2.821048
1927,-18.97318,2.814571
1929,-19.46931,2.810266
1932,-20.41835,2.803828
1934,-21.28383,2.799548
1937,-23.44253,2.793147
1939,-27.53885,2.788892
1942,-23.70655,11.5357
1944,-22.02983,11.51472
1947,-20.60916,11.48339
1949,-19.96575,11.46259
1952,-19.23447,11.43152
1954,-18.84846,11.4109
1957,-18.37248,11.38011
1959,-18.10718,11.35966
1962,-17.76904,11.32913
1964,-17.57646,11.30886
1967,-17.32852,11.27858
1969,-17.18711,11.25848
1972,-17.00675,11.22846
1974,-16.90608,11.20854
1977,-16.78279,11.17877
1979,-16.71866,11.15901
1982,-16.64986,11.12949
1984,-16.62304,11.1099
1987,-16.61411,11.08063
1989,-16.63168,11.0612
1992,-16.70079,11.03218
1994,-16.78246,11.01291
1997,-16.97964,10.98413
1999,-17.18424,10.96502
2000,-17.31937,10.95549
2002,-17.69322,10.93648
2004,-18.33127,10.91753
2007,-21.82285,15.21411
2009,-18.4208,15.1879
2012,-17.097,15.14874
2014,-16.56034,15.12274
2017,-15.95324,15.08389
2019,-15.62494,15.0581
2022,-15.20404,15.01958
2024,-14.95783,14.994
2027,-14.62628,14.95578
2029,-14.42523,14.93041
2032,-14.14754,14.8925
2034,-13.97571,14.86733
2037,-13.73495,14.82973
2039,-13.58399,14.80476
2044,-13.23504,14.7427
2049,-12.91969,14.68112
2054,-12.63163,14.62004
2059,-12.36633,14.55944
2064,-12.12047,14.49932
2069,-11.89147,14.43968
2074,-11.67734,14.38051
2079,-11.47646,14.3218
2084,-11.28754,14.26354
2089,-11.10952,14.20575
2094,-10.94151,14.1484
2099,-10.78278,14.0915
2100,-10.75209,14.08017
2104,-10.63272,14.03503
2119,-10.22982,13.86824
2124,-10.11017,13.81349
2129,-9.997454,13.75916
2134,-9.891546,13.70524
2139,-9.792401,13.65173
2144,-9.700033,13.59862
2149,-9.614568,13.54591
2154,-9.536215,13.4936
2159,-9.465336,13.44168
2164,-9.402446,13.39015
2169,-9.348306,13.339
2174,-9.303989,13.28824
2179,-9.271067,13.23785
2184,-9.251851,13.18783
2189,-9.249926,13.13818
2194,-9.27115,13.08889
2199,-9.326004,13.03996
2200,-9.342568,13.03022
2204,-9.436042,12.9914
2209,-9.657959,12.94318
2214,-10.26724,12.89532
2219,-10.07675,14.76534
2224,-9.3453,14.71371
2229,-8.951449,14.66245
2234,-8.66301,14.61159
2239,-8.427603,14.5611
2244,-8.224662,14.51098
2249,-8.043894,14.46124
2254,-7.879432,14.41187
2259,-7.72756,14.36286
2264,-7.585808,14.31421
2269,-7.452408,14.26592
2274,-7.326086,14.21798
2279,-7.205849,14.1704
2284,-7.090949,14.12316
2289,-6.980767,14.07626
2294,-6.874823,14.02971
2299,-6.772699,13.98349
2300,-6.752705,13.97428
2304,-6.674066,13.9376
2309,-6.578626,13.89205
2314,-6.48614,13.84682
2400,-5.214372,13.11722
2500,-4.190253,12.37107
2600,-3.305802,11.68135
2700,-2.657175,11.04028
2800,-2.171067,10.45848
2900,-1.715324,9.926167
3000,-1.38333,9.421013
3100,-1.109393,8.95466
3200,-0.8823455,8.522561
3300,-0.6933858,8.12139
3400,-0.5357112,7.74822
3500,-0.4039753,7.400467
3600,-0.293913,7.075841
3700,-0.202082,6.772309
3800,-0.1256744,6.48806
3900,-6.5153986E-02,6.221552
4000,-1.3187605E-02,5.971581
4100,2.6857736E-02,5.736811
4200,6.0998291E-02,5.515839
4300,8.8103548E-02,5.307552
4400,0.1091301,5.110983
4500,0.1236824,4.925358
4600,0.1348378,4.749833
4700,0.1420377,4.58364
4800,0.1457961,4.426118
4900,0.146557,4.276668
5000,0.1447042,4.13474
5100,0.1359398,3.999896
5200,0.1298024,3.871681
5300,0.1191692,3.749634
5400,0.1097932,3.633372
5500,9.9107154E-02,3.522491
5600,8.727897E-02,3.416659
5700,7.4456118E-02,3.315571
5800,6.0768023E-02,3.218945
5900,4.63286E-02,3.126517
6000,3.1237872E-02,3.038047
6100,1.55839E-02,2.953307
6200,-5.5579515E-04,2.87209
6300,-1.7113052E-02,2.794199
6400,-3.4027647E-02,2.719455
6500,-5.12468E-02,2.647687
6600,-6.8723977E-02,2.578739
6700,-8.641579E-02,2.512463
6800,-0.1052747,2.44874
6900,-0.1233033,2.387424
7000,-0.1414545,2.328393
7100,-0.1597044,2.271533
7200,-0.1780326,2.216738
7300,-0.1964216,2.163908
7400,-0.2148563,2.112949
7500,-0.2333241,2.063774
7600,-0.2518146,2.016299
7700,-0.2703196,1.970446
7800,-0.2888326,1.926141
7900,-0.3073487,1.883315
8000,-0.3258653,1.841902
8100,-0.3443815,1.80184
8200,-0.3628979,1.763071
8300,-0.3814181,1.725539
8400,-0.3999223,1.689192
8500,-0.422506,1.654115
8600,-0.4410636,1.620128
8700,-0.4621149,1.587183
8800,-0.4808539,1.555315
8900,-0.4998965,1.5244
9000,-0.5181621,1.494584
9100,-0.5364274,1.46565
9200,-0.5546616,1.437563
9300,-0.572883,1.410288
9400,-0.5910972,1.383796
9500,-0.6093118,1.358055
9600,-0.627578,1.333037
9700,-0.6461361,1.308726
9800,-0.6644326,1.285088
9900,-0.6827564,1.262097
10000,-0.7011169,1.239729
10100,-0.719523,1.217962
10200,-0.7379839,1.196774
10300,-0.7565102,1.176144
10400,-0.7751117,1.156054
10500,-0.7937996,1.136483
10600,-0.8125854,1.117413
10700,-0.8314805,1.098829
10800,-0.850498,1.080712
10900,-0.8696508,1.063048
11000,-0.8889529,1.045821
11100,-0.9084187,1.029016
11200,-0.9280635,1.01262
11300,-0.9479036,0.9966189
11400,-0.9679558,0.9810007
11500,-0.9882386,0.9657526
11600,-1.008771,0.950863
11700,-1.029573,0.9363207
11800,-1.050666,0.9221147
11900,-1.072074,0.9082345
12000,-1.09382,0.8946702
12100,-1.115932,0.881412
12200,-1.138437,0.8684509
12300,-1.161366,0.8557776
12400,-1.184751,0.8433839
12500,-1.208627,0.8312613
12600,-1.233032,0.8194018
12700,-1.258008,0.807798
12800,-1.283599,0.7964422
12900,-1.309855,0.7853275
13000,-1.336829,0.7744468
13100,-1.36458,0.7637938
13200,-1.393172,0.7533619
13300,-1.422678,0.7431449
13400,-1.453176,0.7331371
13500,-1.484756,0.7233325
13600,-1.517517,0.7137257
13700,-1.551569,0.7043114
13800,-1.587039,0.6950842
13900,-1.62407,0.6860393
14000,-1.662824,0.6771718
14100,-1.703489,0.668477
14200,-1.746281,0.6599506
14300,-1.791454,0.6515879
14400,-1.839302,0.6433849
14500,-1.890178,0.6353375
14600,-1.944503,0.6274416
14700,-2.002784,0.6196935
14800,-2.065649,0.6120895
14900,-2.133874,0.6046259
15000,-2.208444,0.5972993
15100,-2.29063,0.5901062
15200,-2.382111,0.5830436
15300,-2.485174,0.5761082
15400,-2.603031,0.5692968
15500,-2.74041,0.5626065
15600,-2.904659,0.5560344
15700,-3.10812,0.5495779
15800,-3.373945,0.543234
15900,-3.753898,0.5370002
16000,-4.410354,0.5308739
16007,-4.479045,0.530449
16012,-4.531285,0.5301459
16017,-4.586534,0.5298429
16022,-4.645102,0.5295403
16027,-4.707454,0.5292379
16032,-4.774046,0.5289358
16037,-4.84554,0.5286338
16042,-4.922634,0.5283323
16047,-5.006327,0.5280309
16052,-5.097755,0.5277299
16057,-5.198505,0.527429
16062,-5.310699,0.5271285
16067,-5.437111,0.5268282
16072,-5.581929,0.5265281
16077,-5.751185,0.5262283
16082,-5.954867,0.5259287
16087,-6.210147,0.5256295
16092,-6.552091,0.5253305
16097,-7.070779,0.5250317
16100,-7.586882,0.5248526
16102,-8.173613,0.5247332
16107,-8.266174,3.774017
16112,-7.097009,3.771629
16117,-6.559167,3.769244
16122,-6.205417,3.766863
16127,-5.94093,3.764484
16132,-5.729575,3.762109
16137,-5.553379,3.759738
16142,-5.402168,3.757369
16147,-5.269768,3.755004
16152,-5.151892,3.752641
16157,-5.045712,3.750282
16162,-4.949024,3.747926
16167,-4.860315,3.745573
16172,-4.778294,3.743223
16177,-4.702066,3.740877
16182,-4.630832,3.738534
16187,-4.563945,3.736194
16192,-4.500943,3.733857
16197,-4.44135,3.731523
16200,-4.407094,3.730124
16202,-4.384851,3.729192
16300,-3.631526,3.684135
16400,-3.178024,3.639356
16500,-2.855579,3.595745
16600,-2.605327,3.553265
16700,-2.401121,3.511878
16800,-2.228993,3.471549
16900,-2.080404,3.432242
17000,-1.950374,3.393926
17100,-1.834734,3.356569
17200,-1.731068,3.32014
17300,-1.637132,3.284612
17400,-1.551522,3.249954
17500,-1.473046,3.216141
17600,-1.400748,3.183147
17700,-1.333853,3.150947
17800,-1.271723,3.119518
17900,-1.213821,3.088836
18000,-1.159698,3.058879
18100,-1.108971,3.029625
18200,-1.061309,3.001055
18300,-1.016428,2.97315
18400,-0.9740756,2.945888
18500,-0.9340345,2.919253
18600,-0.8961112,2.893227
18700,-0.860134,2.867792
18800,-0.8259505,2.842933
18900,-0.7934222,2.818633
19000,-0.7624263,2.794878
19100,-0.7328514,2.771652
19200,-0.7045966,2.74894
19300,-0.6775706,2.726731
19400,-0.6516885,2.70501
19500,-0.6268744,2.683764
19600,-0.603058,2.662981
19700,-0.5801749,2.642649
19800,-0.558166,2.622756
19900,-0.5369754,2.603292
20000,-0.5165528,2.584245
20100,-0.496851,2.565605
20200,-0.4778262,2.547362
20300,-0.4594379,2.529505
20400,-0.4416473,2.512027
20500,-0.4244193,2.494916
20600,-0.4077205,2.478165
20700,-0.3915198,2.461764
20800,-0.3757883,2.445707
20900,-0.3605016,2.429983
21000,-0.2663905,2.412146
21100,-0.2504525,2.393186
21200,-0.23502,2.374445
21300,-0.2200744,2.355921
21400,-0.2055963,2.337609
21500,-0.1915677,2.319507
21600,-0.1779716,2.301612
21700,-0.1647916,2.283919
21800,-0.1520125,2.266428
21900,-0.139619,2.249133
22000,-0.1275973,2.232032
22100,-0.1159343,2.215122
22200,-0.1046171,2.198401
22300,-9.3633927E-02,2.181866
22400,-8.2972787E-02,2.165514
22500,-7.262288E-02,2.149341
22600,-6.2573701E-02,2.133346
22700,-5.2815195E-02,2.117525
22800,-4.3337937E-02,2.101878
22900,-3.4132373E-02,2.086399
23000,-2.518988E-02,2.071088
23100,-1.650203E-02,2.055942
23200,-8.0607412E-03,2.040959
23300,1.4158151E-04,2.026136
23400,8.112683E-03,2.01147
23500,1.5859541E-02,1.99696
23600,2.3389006E-02,1.982604
23700,3.0707661E-02,1.968399
23800,3.7821699E-02,1.954343
23900,4.4737469E-02,1.940434
24000,5.1460695E-02,1.92667
24100,5.7996999E-02,1.913049
24200,6.4351805E-02,1.899569
24300,7.0530213E-02,1.886229
24400,7.6537497E-02,1.873025
24500,8.2378365E-02,1.859956
24600,8.8057503E-02,1.847021
24700,9.3579404E-02,1.834217
24800,9.8948322E-02,1.821543
24900,0.1041686,1.808998