Energy,f’,f’’
1000,-29.98008,27.13431
1100,-27.55013,25.17858
1200,-26.05029,23.39963
1300,-24.9545,21.78164
1400,-24.16509,20.30556
1500,-23.62947,18.95752
1600,-23.30202,17.72468
1700,-23.11978,16.593
1800,-23.15152,15.54287
1900,-23.62702,14.57803
2000,-24.02776,13.7247
2100,-24.83987,12.96735
2200,-25.69202,12.27089
2300,-26.88413,11.62863
2400,-28.62962,11.03491
2500,-31.57111,10.48481
2586,-37.34425,10.04339
2591,-37.94038,10.01857
2596,-38.59283,9.993837
2600,-39.16129,9.974118
2601,-39.31056,9.969196
2606,-40.10439,9.944645
2611,-40.98775,9.920181
2616,-41.97728,9.895807
2621,-43.09413,9.871519
2626,-44.3652,9.84732
2631,-45.82587,9.823206
2636,-47.52294,9.79918
2641,-49.52069,9.775238
2646,-51.90917,9.751384
2651,-54.82059,9.727613
2656,-58.4574,9.703928
2661,-63.15263,9.680326
2666,-69.50549,9.65681
2671,-78.76568,9.633376
2676,-94.29839,9.610024
2681,-133.7445,9.586758
2686,-116.5206,115.1449
2691,-76.75197,104.4903
2696,-57.73596,95.13213
2700,-48.03283,88.46079
2701,-46.08226,86.89577
2705,-39.6539,81.01253
2706,-38.33079,79.63059
2710,-33.91789,74.4315
2711,-33.00254,73.20928
2715,-29.94532,68.60532
2716,-29.31298,67.52163
2720,-27.22117,63.43647
2721,-26.79532,62.47417
2725,-25.42043,58.84218
2726,-25.15069,57.98558
2730,-24.32768,54.75028
2731,-24.18036,53.98669
2735,-23.79741,51.09932
2736,-23.74954,50.41704
2740,-23.73149,47.83547
2741,-23.76796,47.22505
2745,-24.06691,44.91277
2746,-24.17867,44.36541
2750,-24.76902,42.29079
2751,-24.95219,41.79939
2755,-25.82897,39.93478
2756,-26.08497,39.49279
2760,-27.2651,37.81446
2761,-27.60132,37.41629
2765,-29.12967,35.90314
2766,-29.56169,35.54392
2770,-31.52339,34.17789
2771,-32.07961,33.85334
2775,-34.62873,32.61828
2776,-35.36067,32.32467
2780,-38.78439,31.20674
2781,-39.79218,30.94079
2785,-44.69015,29.92756
2790,-54.12721,28.76719
2795,-74.65014,27.71348
2800,-83.25529,99.27804
2805,-49.08595,90.16742
2810,-34.92552,82.29209
2815,-26.73723,75.46378
2820,-22.3252,69.52707
2825,-18.0221,64.35121
2830,-15.69982,59.8275
2835,-14.16399,55.86393
2840,-13.1838,52.38378
2845,-12.60452,49.32167
2850,-12.31879,46.62283
2855,-12.24996,44.24031
2860,-12.34225,42.13465
2865,-12.5545,40.2718
2870,-12.85589,38.6231
2875,-13.22323,37.16369
2880,-13.6389,35.87252
2885,-14.08943,34.73152
2890,-14.56457,33.72503
2895,-15.05642,32.83982
2900,-15.55896,32.06435
3000,-24.83118,31.76425
3100,-22.2728,30.0913
3200,-21.01294,28.57004
3204,-20.99385,28.51216
3209,-20.97463,28.44011
3214,-20.96095,28.3684
3219,-20.95333,28.29702
3224,-20.95233,28.22598
3229,-20.95864,28.15526
3234,-20.97313,28.08488
3239,-20.99688,28.01482
3244,-21.0312,27.94509
3249,-21.07782,27.87568
3254,-21.13897,27.80659
3259,-21.21765,27.73782
3264,-21.31796,27.66936
3269,-21.4458,27.60122
3274,-21.61,27.53339
3279,-21.82472,27.46587
3284,-22.11466,27.39866
3289,-22.5294,27.33175
3294,-23.19655,27.26515
3299,-24.64566,27.19885
3300,-25.27659,27.18563
3304,-25.05915,31.96424
3309,-23.09103,31.88089
3314,-22.1837,31.79806
3319,-21.56824,31.71572
3324,-21.09322,31.6339
3329,-20.70143,31.55257
3334,-20.36504,31.47174
3339,-20.06836,31.3914
3344,-19.80161,31.31154
3349,-19.55836,31.23217
3354,-19.33407,31.15327
3359,-19.12547,31.07486
3364,-18.93009,30.9969
3369,-18.74604,30.91942
3374,-18.57182,30.8424
3379,-18.40625,30.76584
3384,-18.24833,30.68974
3389,-18.09728,30.61408
3394,-17.95242,30.53888
3399,-17.81317,30.46412
3400,-17.78595,30.44921
3500,-15.67794,29.04161
3600,-14.37637,27.76576
3700,-13.36509,26.58897
3757,-13.08532,25.95748
3762,-13.07087,25.90366
3767,-13.05855,25.85008
3772,-13.04854,25.79675
3777,-13.04107,25.74367
3782,-13.03641,25.69082
3787,-13.03489,25.63823
3792,-13.03693,25.58587
3797,-13.04304,25.53375
3800,-13.04893,25.50259
3802,-13.05389,25.48186
3807,-13.07034,25.43022
3812,-13.09357,25.37881
3817,-13.12519,25.32764
3822,-13.16751,25.2767
3827,-13.22407,25.22599
3832,-13.30055,25.17551
3837,-13.4071,25.12527
3842,-13.56459,25.07525
3847,-13.82855,25.02546
3852,-14.48177,24.97589
3857,-14.26177,26.71595
3862,-13.64933,26.65933
3867,-13.33129,26.60303
3872,-13.10772,26.54706
3877,-12.93174,26.4914
3882,-12.78471,26.43605
3887,-12.65726,26.38102
3892,-12.54403,26.3263
3897,-12.44163,26.27189
3900,-12.38443,26.23939
3902,-12.34783,26.21779
3907,-12.26103,26.16398
3912,-12.18008,26.11049
3917,-12.10409,26.05729
3922,-12.0324,26.00439
3927,-11.96449,25.95178
3932,-11.89992,25.89948
3937,-11.83836,25.84746
3942,-11.77951,25.79573
3947,-11.72315,25.74429
3952,-11.66908,25.69314
4000,-11.24405,25.21636
4052,-10.9302,24.72778
4057,-10.90797,24.68227
4062,-10.88733,24.63701
4067,-10.86835,24.592
4072,-10.85117,24.54723
4077,-10.83593,24.50272
4082,-10.8228,24.45845
4087,-10.81201,24.41442
4092,-10.80386,24.37064
4097,-10.79871,24.3271
4100,-10.79727,24.30109
4102,-10.79707,24.2838
4107,-10.79959,24.24074
4112,-10.80719,24.19792
4117,-10.8212,24.15534
4122,-10.84361,24.11299
4127,-10.87766,24.07087
4132,-10.92905,24.02899
4137,-11.00941,23.98734
4142,-11.14905,23.94592
4147,-11.49159,23.90474
4152,-11.43445,24.90991
4157,-11.04629,24.8688
4162,-10.84746,24.82792
4167,-10.7061,24.78726
4172,-10.59312,24.74682
4177,-10.4972,24.70661
4182,-10.41274,24.66662
4187,-10.33654,24.62685
4192,-10.26659,24.5873
4197,-10.20158,24.54797
4200,-10.16454,24.52448
4202,-10.14056,24.50886
4207,-10.08286,24.46997
4212,-10.02796,24.43129
4217,-9.975483,24.39283
4222,-9.925102,24.35458
4227,-9.876575,24.31654
4232,-9.8297,24.27872
4237,-9.784302,24.24111
4242,-9.740242,24.20371
4247,-9.697401,24.16652
4300,-8.806189,23.77626
4400,-8.159202,22.98993
4500,-7.643731,22.25716
4600,-7.215345,21.57391
4700,-6.851694,20.93682
4800,-6.538672,20.34316
4900,-6.266215,19.7907
5000,-6.026514,19.27767
5100,-5.456207,18.73934
5200,-5.231946,18.21831
5300,-5.032388,17.71976
5400,-4.837792,17.24183
5500,-4.679158,16.7824
5600,-4.534772,16.3417
5700,-4.409304,15.91839
5800,-4.298002,15.51181
5900,-4.199501,15.12107
6000,-4.112598,14.74532
6100,-4.036232,14.38377
6200,-3.969465,14.03569
6300,-3.911462,13.7004
6400,-3.861479,13.37725
6500,-3.818851,13.06565
6600,-3.782984,12.76504
6700,-3.766795,12.47595
6800,-3.743136,12.19689
6900,-3.724715,11.92733
7000,-3.711143,11.66685
7100,-3.70207,11.41502
7200,-3.697178,11.17145
7300,-3.696182,10.93577
7400,-3.698823,10.70764
7500,-3.704868,10.48672
7600,-3.714108,10.27271
7700,-3.726174,10.06531
7800,-3.753427,9.865025
7900,-3.771421,9.670902
8000,-3.791912,9.482616
8100,-3.814781,9.299928
8200,-3.839926,9.122611
8300,-3.870678,8.950453
8400,-3.900215,8.783477
8500,-3.931814,8.621264
8600,-3.965453,8.46363
8700,-4.00115,8.310402
8800,-4.038984,8.161409
8900,-4.092237,8.01652
9000,-4.131166,7.87745
9100,-4.171571,7.74217
9200,-4.213442,7.61054
9300,-4.256763,7.482424
9400,-4.302114,7.357694
9500,-4.348392,7.236237
9600,-4.39612,7.117929
9700,-4.44529,7.00266
9800,-4.495919,6.89032
9900,-4.548027,6.78081
10000,-4.601645,6.67403
10100,-4.656809,6.569888
10200,-4.713562,6.468295
10300,-4.771957,6.369164
10400,-4.832052,6.272416
10500,-4.893918,6.177969
10600,-4.957632,6.085751
10700,-5.023284,5.995689
10800,-5.090976,5.907713
10900,-5.160822,5.821759
11000,-5.232952,5.737761
11100,-5.30751,5.655659
11200,-5.384662,5.575395
11300,-5.464594,5.496911
11400,-5.547516,5.420154
11500,-5.63367,5.345072
11600,-5.723345,5.271615
11700,-5.817446,5.199747
11800,-5.915103,5.129413
11900,-6.017347,5.060566
12000,-6.124666,4.993161
12100,-6.237628,4.927157
12200,-6.358685,4.862548
12300,-6.485102,4.799273
12400,-6.619606,4.737283
12500,-6.763387,4.676543
12600,-6.917912,4.617019
12700,-7.085034,4.558677
12800,-7.267135,4.501484
12900,-7.467342,4.44541
13000,-7.68989,4.390424
13100,-7.940696,4.336498
13200,-8.228393,4.283604
13300,-8.567561,4.231723
13400,-8.977859,4.180826
13500,-9.501508,4.130881
13600,-10.22818,4.081866
13700,-11.42676,4.033755
13716,-11.71583,4.02614
13721,-11.81605,4.023765
13726,-11.92188,4.021392
13731,-12.03399,4.019021
13736,-12.15314,4.016653
13741,-12.2803,4.014286
13746,-12.41659,4.011922
13751,-12.56343,4.00956
13756,-12.72254,4.0072
13761,-12.89621,4.004842
13766,-13.08733,4.002487
13771,-13.29976,4.000134
13776,-13.53882,3.997782
13781,-13.8121,3.995433
13786,-14.13098,3.993086
13791,-14.51367,3.990741
13796,-14.99194,3.988399
13800,-15.48436,3.986526
13801,-15.62988,3.986059
13806,-16.58944,3.983721
13811,-18.57722,3.981384
13816,-19.06335,10.10292
13821,-16.74559,10.09681
13826,-15.7127,10.09071
13831,-15.03893,10.08461
13836,-14.53769,10.07852
13841,-14.13831,10.07243
13846,-13.80612,10.06635
13851,-13.52171,10.06027
13856,-13.27303,10.0542
13861,-13.05207,10.04814
13866,-12.85325,10.04207
13871,-12.67253,10.03602
13876,-12.50688,10.02997
13881,-12.354,10.02392
13886,-12.21202,10.01789
13891,-12.0795,10.01185
13896,-11.95526,10.00582
13900,-11.86119,10.001
13901,-11.83834,9.999796
13906,-11.72791,9.993777
13911,-11.6233,9.987763
14000,-10.33634,9.881577
14100,-9.491827,9.76418
14200,-8.912998,9.648767
14300,-8.480357,9.535293
14400,-8.143832,9.423805
14500,-7.868119,9.314179
14600,-7.641919,9.206367
14700,-7.45498,9.10033
14800,-7.300661,8.996027
14900,-7.174456,8.893424
15000,-7.073336,8.792481
15100,-6.995377,8.693166
15200,-6.939558,8.595444
15300,-6.905683,8.49928
15400,-6.894433,8.404643
15500,-6.907541,8.3115
15600,-6.948183,8.219819
15700,-7.021767,8.129574
15800,-7.137585,8.040731
15900,-7.312621,7.953266
16000,-7.584196,7.86715
16100,-8.04151,7.782372
16147,-8.402965,7.742975
16152,-8.452152,7.7388
16157,-8.504223,7.734629
16162,-8.559556,7.73046
16167,-8.618515,7.726295
16172,-8.681629,7.722133
16177,-8.749442,7.717975
16182,-8.822702,7.71382
16187,-8.902352,7.709668
16192,-8.989491,7.705519
16197,-9.085695,7.701373
16200,-9.148559,7.698886
16202,-9.19291,7.69723
16207,-9.314001,7.69309
16212,-9.452865,7.688954
16217,-9.615555,7.684822
16222,-9.811843,7.680691
16227,-10.05873,7.676565
16232,-10.39145,7.672441
16237,-10.90152,7.668321
16242,-12.03436,7.664203
16247,-11.88335,10.75657
16252,-10.84639,10.75106
16257,-10.3501,10.74556
16262,-10.02004,10.74006
16267,-9.772029,10.73456
16272,-9.573282,10.72907
16277,-9.407247,10.72358
16282,-9.264704,10.71809
16287,-9.139707,10.71261
16292,-9.028459,10.70713
16297,-8.92815,10.70166
16300,-8.872432,10.69838
16302,-8.836877,10.69619
16307,-8.753113,10.69073
16312,-8.675685,10.68526
16317,-8.603753,10.67981
16322,-8.536542,10.67435
16327,-8.473519,10.6689
16332,-8.414155,10.66346
16337,-8.35809,10.65802
16342,-8.304967,10.65258
16400,-7.834822,10.58979
16500,-7.349008,10.48276
16600,-7.060318,10.37725
16700,-6.903452,10.27325
16800,-6.901704,10.17083
16842,-6.975182,10.12825
16847,-6.989297,10.12319
16852,-7.004944,10.11815
16857,-7.022304,10.1131
16862,-7.041567,10.10806
16867,-7.062994,10.10302
16872,-7.086866,10.09798
16877,-7.113568,10.09295
16882,-7.143539,10.08793
16887,-7.177375,10.0829
16892,-7.215855,10.07788
16897,-7.259971,10.07286
16900,-7.289723,10.06986
16902,-7.311164,10.06785
16907,-7.371414,10.06284
16912,-7.443812,10.05783
16917,-7.533209,10.05283
16922,-7.648362,10.04783
16927,-7.806918,10.04284
16932,-8.055369,10.03785
16937,-8.619172,10.03286
16942,-8.531376,11.5943
16947,-7.997626,11.5891
16952,-7.737277,11.5839
16957,-7.560921,11.5787
16962,-7.426176,11.5735
16967,-7.316296,11.56831
16972,-7.222967,11.56313
16977,-7.141535,11.55794
16982,-7.06899,11.55276
16987,-7.003418,11.54759
16992,-6.943395,11.54241
16997,-6.887962,11.53724
17000,-6.856567,11.53414
17002,-6.836328,11.53207
17007,-6.787951,11.52691
17012,-6.742359,11.52175
17017,-6.69917,11.51659
17022,-6.658123,11.51144
17027,-6.618942,11.50628
17032,-6.581456,11.50114
17037,-6.545474,11.49599
17100,-6.178055,11.43145
17200,-5.761755,11.33007
17300,-5.439455,11.22997
17400,-5.169321,11.13111
17500,-4.933788,11.03349
17600,-4.723547,10.93709
17700,-4.532949,10.84187
17800,-4.358251,10.74783
17900,-4.196805,10.65494
18000,-4.065269,10.56357
18100,-3.925225,10.47388
18200,-3.793731,10.3853
18300,-3.669846,10.29782
18400,-3.552779,10.21142
18500,-3.441877,10.12608
18600,-3.336584,10.04177
18700,-3.237333,9.958488
18800,-3.1419,9.876217
18900,-3.050822,9.794932
19000,-2.963787,9.714618
19100,-2.880515,9.635258
19200,-2.800757,9.556837
19300,-2.724289,9.47934
19400,-2.650907,9.402749
19500,-2.58043,9.327051
19600,-2.512692,9.252231
19700,-2.447541,9.178275
19800,-2.38484,9.105171
19900,-2.32446,9.032902
20000,-2.266283,8.961456
20100,-2.210202,8.890821
20200,-2.156117,8.820981
20300,-2.103935,8.751929
20400,-2.053568,8.683648
20500,-2.004935,8.616127
20600,-1.957962,8.549356
20700,-1.912579,8.483321
20800,-1.868718,8.418014
20900,-1.826318,8.35342
21000,-1.785322,8.289532
21100,-1.745704,8.226336
21200,-1.713325,8.164061
21300,-1.676321,8.102515
21400,-1.640503,8.041637
21500,-1.605829,7.98142
21600,-1.572259,7.921851
21700,-1.539753,7.862922
21800,-1.508274,7.804624
21900,-1.477785,7.746946
22000,-1.448259,7.689879
22100,-1.441178,7.634192
22200,-1.413889,7.579329
22300,-1.38743,7.52508
22400,-1.361774,7.471432
22500,-1.336892,7.418378
22600,-1.31276,7.36591
22700,-1.289352,7.314017
22800,-1.266645,7.262692
22900,-1.244615,7.211925
23000,-1.223241,7.161709
23100,-1.202501,7.112035
23200,-1.182376,7.062895
23300,-1.162847,7.014283
23400,-1.143893,6.966188
23500,-1.125499,6.918605
23600,-1.107647,6.871526
23700,-1.09032,6.824943
23800,-1.073502,6.77885
23900,-1.057179,6.733239
24000,-1.041335,6.688103
24100,-1.025956,6.643435
24200,-1.011028,6.59923
24300,-0.9965398,6.555481
24400,-0.9824764,6.51218
24500,-0.9688264,6.469322
24600,-0.9555777,6.4269
24700,-0.942719,6.384909
24800,-0.9302391,6.343343
24900,-0.9181269,6.302195