Energy,f’,f’’
1000,0.1252529,0.1175488
1100,0.110262,9.759894E-02
1200,9.7817719E-02,8.2217991E-02
1300,8.7379083E-02,7.0118293E-02
1400,7.8537874E-02,6.0435206E-02
1500,7.0983164E-02,5.2570723E-02
1600,6.4475529E-02,4.6100512E-02
1700,5.8828585E-02,4.0716775E-02
1800,5.3895619E-02,3.6191884E-02
1900,4.955994E-02,3.2354593E-02
2000,4.5727834E-02,2.9074105E-02
2100,4.2180683E-02,2.6250761E-02
2200,3.9146114E-02,2.3811579E-02
2300,3.6426656E-02,2.168447E-02
2400,3.3979513E-02,1.9819129E-02
2500,3.1769052E-02,1.8174952E-02
2600,2.9765302E-02,1.6718844E-02
2700,2.79429E-02,1.5423636E-02
2800,2.6280276E-02,1.4266865E-02
2900,2.4758952E-02,1.3229817E-02
3000,2.336303E-02,1.2296819E-02
3100,2.2076227E-02,1.1458456E-02
3200,2.0890668E-02,1.0699629E-02
3300,1.9795898E-02,1.0010754E-02
3400,1.8782776E-02,9.3836291E-03
3500,1.78433E-02,8.8112159E-03
3600,1.6970426E-02,8.2874401E-03
3700,1.6157938E-02,7.8070392E-03
3800,1.5400334E-02,7.3654414E-03
3900,1.4691442E-02,6.9586663E-03
4000,1.402944E-02,6.583211E-03
4100,1.3409212E-02,6.2359958E-03
4200,1.2827283E-02,5.9143119E-03
4300,1.2280528E-02,5.6157638E-03
4400,1.1766145E-02,5.3382306E-03
4500,1.1281601E-02,5.0798235E-03
4600,1.0824608E-02,4.8388601E-03
4700,1.0393095E-02,4.6138368E-03
4800,9.9851843E-03,4.4034058E-03
4900,9.5991706E-03,4.2063612E-03
5000,9.2334971E-03,4.0216134E-03
5100,8.8867461E-03,3.848182E-03
5200,8.5576223E-03,3.685182E-03
5300,8.2449364E-03,3.5318099E-03
5400,7.9476051E-03,3.3873408E-03
5500,7.6646283E-03,3.251113E-03
5600,7.3950877E-03,3.1225255E-03
5700,7.1381382E-03,3.0010305E-03
5800,6.8929987E-03,2.8861272E-03
5900,6.6589518E-03,2.777359E-03
6000,6.435331E-03,2.6743065E-03
6100,6.2215202E-03,2.5765859E-03
6200,6.0169487E-03,2.4838436E-03
6300,5.821086E-03,2.3957554E-03
6400,5.6334417E-03,2.3120227E-03
6500,5.4535572E-03,2.2323697E-03
6600,5.2810069E-03,2.1565424E-03
6700,5.1153935E-03,2.084305E-03
6800,4.9563455E-03,2.0154405E-03
6900,4.8035192E-03,1.9497472E-03
7000,4.6565905E-03,1.8870382E-03
7100,4.5152572E-03,1.8271401E-03
7200,4.3792361E-03,1.7698914E-03
7300,4.2482605E-03,1.7151419E-03
7400,4.122084E-03,1.6627525E-03
7500,4.0004714E-03,1.6125926E-03
7600,3.8832037E-03,1.5645408E-03
7700,3.7700743E-03,1.5184836E-03
7800,3.6608884E-03,1.474315E-03
7900,3.5554643E-03,1.431936E-03
8000,3.4536291E-03,1.3912538E-03
8100,3.3552195E-03,1.352181E-03
8200,3.260084E-03,1.3146367E-03
8300,3.1680756E-03,1.2785436E-03
8400,3.0790591E-03,1.2438307E-03
8500,2.9929036E-03,1.2104296E-03
8600,2.9094873E-03,1.1782773E-03
8700,2.8286951E-03,1.1473141E-03
8800,2.7504158E-03,1.1174832E-03
8900,2.6745463E-03,1.0887325E-03
9000,2.6010382E-03,1.0614272E-03
9100,2.5297545E-03,1.0350872E-03
9200,2.4606062E-03,1.0096687E-03
9300,2.3935072E-03,9.8512985E-04
9400,2.3283774E-03,9.6143183E-04
9500,2.2651388E-03,9.3853712E-04
9600,2.203719E-03,9.1641088E-04
9700,2.1440485E-03,8.9502009E-04
9800,2.0860597E-03,8.7433291E-04
9900,2.0296909E-03,8.5431995E-04
10000,1.9748805E-03,8.349524E-04
10100,1.9215714E-03,8.1620377E-04
10200,1.8697096E-03,7.9804868E-04
10300,1.8192414E-03,7.8046269E-04
10400,1.770118E-03,7.6342304E-04
10500,1.7222906E-03,7.4690761E-04
10600,1.6757142E-03,7.3089573E-04
10700,1.6303454E-03,7.1536785E-04
10800,1.5861414E-03,7.0030475E-04
10900,1.5430634E-03,6.8568881E-04
11000,1.5010723E-03,6.7150273E-04
11100,1.4601317E-03,6.5773027E-04
11200,1.4202071E-03,6.4435607E-04
11300,1.3812641E-03,6.3136499E-04
11400,1.3432709E-03,6.1874324E-04
11500,1.3061961E-03,6.0647691E-04
11600,1.2700105E-03,5.945533E-04
11700,1.2346857E-03,5.829602E-04
11800,1.2001938E-03,5.7168555E-04
11900,1.1665092E-03,5.607183E-04
12000,1.1336062E-03,5.5004749E-04
12100,1.1014605E-03,5.3966278E-04
12200,1.0700495E-03,5.295545E-04
12300,1.0393501E-03,5.1971292E-04
12400,1.009341E-03,5.101292E-04
12500,9.8000129E-04,5.0079438E-04
12600,9.5131109E-04,4.9170025E-04
12700,9.232515E-04,4.8283892E-04
12800,8.958035E-04,4.7420253E-04
12900,8.6894975E-04,4.657839E-04
13000,8.4267248E-04,4.5757578E-04
13100,8.1695552E-04,4.4957144E-04
13200,7.9178304E-04,4.4176445E-04
13300,7.6713919E-04,4.3414842E-04
13400,7.4300962E-04,4.2671742E-04
13500,7.193794E-04,4.1946556E-04
13600,6.962351E-04,4.1238734E-04
13700,6.7356345E-04,4.0547745E-04
13800,6.5135118E-04,3.987306E-04
13900,6.2958617E-04,3.9214196E-04
14000,6.0825609E-04,3.857066E-04
14100,5.8734941E-04,3.7942006E-04
14200,5.6685507E-04,3.732779E-04
14300,5.467619E-04,3.6727573E-04
14400,5.2705972E-04,3.6140959E-04
14500,5.0773798E-04,3.5567535E-04
14600,4.8878702E-04,3.5006925E-04
14700,4.701975E-04,3.4458769E-04
14800,4.5195984E-04,3.3922697E-04
14900,4.3406547E-04,3.3398374E-04
15000,4.1650541E-04,3.2885463E-04
15100,3.9927149E-04,3.2383643E-04
15200,3.8235571E-04,3.1892615E-04
15300,3.6574993E-04,3.1412067E-04
15400,3.4944684E-04,3.094172E-04
15500,3.3343874E-04,3.0481286E-04
15600,3.1771866E-04,3.0030502E-04
15700,3.0227978E-04,2.9589108E-04
15800,2.8711508E-04,2.9156849E-04
15900,2.7221831E-04,2.8733484E-04
16000,2.575829E-04,2.8318772E-04
16100,2.432028E-04,2.7912488E-04
16200,2.2907206E-04,2.7514409E-04
16300,2.1518517E-04,2.7124333E-04
16400,2.0153594E-04,2.6742037E-04
16500,1.8811919E-04,2.6367328E-04
16600,1.7492962E-04,2.6000009E-04
16700,1.6196207E-04,2.5639895E-04
16800,1.4921179E-04,2.5286808E-04
16900,1.3667341E-04,2.4940562E-04
17000,1.2434245E-04,2.4600991E-04
17100,1.1221431E-04,2.4267926E-04
17200,1.0028454E-04,2.394121E-04
17300,8.8548979E-05,2.3620692E-04
17400,7.700298E-05,2.3306208E-04
17500,6.5642649E-05,2.2997617E-04
17600,5.4463973E-05,2.2694778E-04
17700,4.3463071E-05,2.2397553E-04
17800,3.2636355E-05,2.2105812E-04
17900,2.1979724E-05,2.1819414E-04
18000,1.1489794E-05,2.1538237E-04
18100,1.1630706E-06,2.1262161E-04
18200,-9.0038502E-06,2.0991066E-04
18300,-1.9014095E-05,2.0724841E-04
18400,-2.8871274E-05,2.046336E-04
18500,-3.8578342E-05,2.0206525E-04
18600,-4.8138361E-05,1.9954224E-04
18700,-5.755432E-05,1.9706356E-04
18800,-6.6828958E-05,1.9462827E-04
18900,-7.5965458E-05,1.9223527E-04
19000,-8.4966414E-05,1.8988368E-04
19100,-9.3834526E-05,1.8757256E-04
19200,-1.0257241E-04,1.8530102E-04
19300,-1.1118249E-04,1.8306823E-04
19400,-1.1966757E-04,1.8087325E-04
19500,-1.2802995E-04,1.787153E-04
19600,-1.3627198E-04,1.7659357E-04
19700,-1.4439601E-04,1.7450728E-04
19800,-1.5240414E-04,1.7245571E-04
19900,-1.6029891E-04,1.7043803E-04
20000,-1.6808229E-04,1.6845355E-04
20100,-1.7575642E-04,1.6650159E-04
20200,-1.8332334E-04,1.6458143E-04
20300,-1.9078492E-04,1.6269248E-04
20400,-1.981434E-04,1.6083397E-04
20500,-2.0540059E-04,1.5900533E-04
20600,-2.1255831E-04,1.5720594E-04
20700,-2.1961844E-04,1.5543518E-04
20800,-2.2658259E-04,1.5369251E-04
20900,-2.3345278E-04,1.5197729E-04
21000,-2.4023061E-04,1.5028899E-04
21100,-2.4691774E-04,1.4862708E-04
21200,-2.5351575E-04,1.4699101E-04
21300,-2.6002619E-04,1.453803E-04
21400,-2.6645081E-04,1.4379437E-04
21500,-2.7279102E-04,1.4223278E-04
21600,-2.7904831E-04,1.4069503E-04
21700,-2.8522415E-04,1.3918067E-04
21800,-2.9131983E-04,1.3768925E-04
21900,-2.9733696E-04,1.3622027E-04
22000,-3.0327684E-04,1.3477335E-04
22100,-3.0914074E-04,1.3334802E-04
22200,-3.1493002E-04,1.3194389E-04
22300,-3.2064581E-04,1.3056058E-04
22400,-3.2628959E-04,1.2919764E-04
22500,-3.3186248E-04,1.2785468E-04
22600,-3.3736564E-04,1.2653138E-04
22700,-3.4280031E-04,1.2522731E-04
22800,-3.4816746E-04,1.2394217E-04
22900,-3.5346847E-04,1.2267554E-04
23000,-3.587043E-04,1.2142711E-04
23100,-3.6387605E-04,1.2019654E-04
23200,-3.6898479E-04,1.189835E-04
23300,-3.7403143E-04,1.177877E-04
23400,-3.7901715E-04,1.1660876E-04
23500,-3.8394291E-04,1.1544642E-04
23600,-3.8880963E-04,1.1430035E-04
23700,-3.9361825E-04,1.1317028E-04
23800,-3.9836965E-04,1.1205594E-04
23900,-4.0306491E-04,1.1095699E-04
24000,-4.0770482E-04,1.098732E-04
24100,-4.122903E-04,1.0880428E-04
24200,-4.1682215E-04,1.0774998E-04
24300,-4.2130117E-04,1.0671005E-04
24400,-4.2572836E-04,1.0568421E-04
24500,-4.3010441E-04,1.0467223E-04
24600,-4.3443014E-04,1.0367387E-04
24700,-4.3870631E-04,1.0268889E-04
24800,-4.4293361E-04,1.0171707E-04
24900,-4.4711298E-04,1.0075817E-04