Energy,f’,f’’
1000,-0.5094036,2.264047
1100,-0.5836217,1.945573
1200,-0.6630585,1.691453
1300,-0.7447295,1.485183
1400,-0.8275102,1.315281
1500,-0.9113036,1.173547
1600,-0.9966324,1.053989
1700,-1.084461,0.9521433
1800,-1.176147,0.8646266
1900,-1.273495,0.7888333
2000,-1.378905,0.7227301
2100,-1.495669,0.6647105
2200,-1.628514,0.6134903
2300,-1.784649,0.5680335
2400,-1.975974,0.5274955
2500,-2.224379,0.4911827
2600,-2.577353,0.4585206
2700,-3.173811,0.4290297
2725,-3.410601,0.422104
2730,-3.46583,0.4207391
2735,-3.524365,0.4193808
2740,-3.586611,0.4180291
2745,-3.653035,0.416684
2750,-3.724212,0.4153453
2755,-3.800832,0.4140131
2760,-3.883744,0.4126875
2765,-3.974025,0.4113681
2770,-4.07303,0.4100551
2775,-4.182546,0.4087484
2780,-4.304938,0.407448
2785,-4.443494,0.4061537
2790,-4.602899,0.4048657
2795,-4.790251,0.4035838
2800,-5.016938,0.402308
2805,-5.303148,0.4010383
2810,-5.689918,0.3997746
2815,-6.284248,0.3985169
2820,-7.593381,0.3972651
2825,-7.487523,4.091132
2830,-6.210019,4.081799
2835,-5.602006,4.072425
2840,-5.196812,4.063012
2845,-4.891421,4.05356
2850,-4.645709,4.04407
2855,-4.439748,4.034542
2860,-4.262229,4.024978
2865,-4.106061,4.015378
2870,-3.966549,4.005743
2875,-3.840379,3.996073
2880,-3.725159,3.986368
2885,-3.619092,3.976631
2890,-3.520782,3.966861
2895,-3.429147,3.957059
2900,-3.343309,3.947226
2905,-3.262563,3.937362
2910,-3.18632,3.927468
2915,-3.114097,3.917545
2920,-3.045478,3.907593
3000,-2.253173,3.744969
3100,-1.672992,3.552518
3200,-1.2836,3.376419
3300,-0.9974625,3.2148
3400,-0.7763457,3.066056
3500,-0.5998362,2.928802
3600,-0.4556484,2.801837
3700,-0.3218608,2.682946
3800,-0.2202149,2.569443
3900,-0.1338592,2.463078
4000,-6.0256433E-02,2.363246
4100,2.828955E-03,2.269413
4200,5.7141654E-02,2.181099
4300,0.1040675,2.097874
4400,0.1447227,2.019347
4500,0.1800185,1.945166
4600,0.2107062,1.875012
4700,0.2374109,1.808594
4800,0.2606572,1.745648
4900,0.2808881,1.685933
5000,0.2984809,1.629229
5100,0.312729,1.575342
5200,0.3259596,1.524103
5300,0.3373913,1.475318
5400,0.3472326,1.428832
5500,0.355664,1.384501
5600,0.3628433,1.342193
5700,0.3705744,1.301696
5800,0.3756659,1.262913
5900,0.3798597,1.225814
6000,0.3832512,1.1903
6100,0.385925,1.156284
6200,0.3879561,1.123681
6300,0.3894114,1.092414
6400,0.3903505,1.062411
6500,0.3908268,1.033604
6600,0.3908879,1.005931
6700,0.3905766,0.9793319
6800,0.3899312,0.9537525
6900,0.3889863,0.9291412
7000,0.3877727,0.9054496
7100,0.3863186,0.8826324
7200,0.3846491,0.8606471
7300,0.3827869,0.8394537
7400,0.3807526,0.8190148
7500,0.3785648,0.7992949
7600,0.3762403,0.7802607
7700,0.3737943,0.7618809
7800,0.3712406,0.7441257
7900,0.3685916,0.7269674
8000,0.3657462,0.71038
8100,0.3629403,0.6943383
8200,0.36007,0.6788188
8300,0.3571436,0.6637985
8400,0.3541687,0.6492569
8500,0.3511521,0.6351735
8600,0.3481,0.6215295
8700,0.3450179,0.608307
8800,0.3419108,0.5954887
8900,0.3387833,0.5830586
9000,0.3356797,0.5711015
9100,0.3325737,0.5595018
9200,0.329469,0.5482453
9300,0.3263683,0.5373185
9400,0.3232746,0.5267088
9500,0.3201903,0.516404
9600,0.3171177,0.5063925
9700,0.3140588,0.4966634
9800,0.3110154,0.487206
9900,0.3079892,0.4780105
10000,0.3049815,0.4690671
10100,0.3019938,0.4603669
10200,0.2990272,0.4519012
10300,0.2960827,0.4436614
10400,0.2931612,0.4356399
10500,0.2902635,0.4278287
10600,0.2873904,0.4202208
10700,0.2845424,0.4128093
10800,0.2817201,0.4055872
10900,0.278924,0.3985484
11000,0.2761543,0.3916866
11100,0.2734115,0.3849961
11200,0.2706957,0.3784711
11300,0.2680073,0.3721063
11400,0.2653463,0.3658966
11500,0.2627129,0.3598368
11600,0.2601071,0.3539223
11700,0.2575291,0.3481486
11800,0.2549787,0.342511
11900,0.252456,0.3370056
12000,0.2499611,0.3316281
12100,0.2474941,0.3263747
12200,0.2450593,0.3212415
12300,0.2418357,0.3162387
12400,0.2394426,0.3113554
12500,0.2370759,0.306582
12600,0.2347365,0.3019153
12700,0.2324245,0.2973523
12800,0.2301395,0.2928897
12900,0.2278814,0.2885248
13000,0.22565,0.2842546
13100,0.2234449,0.2800766
13200,0.221266,0.275988
13300,0.2191131,0.2719864
13400,0.2169857,0.2680692
13500,0.2148837,0.2642342
13600,0.2128067,0.2604791
13700,0.2107546,0.2568017
13800,0.2087269,0.2531998
13900,0.2067235,0.2496714
14000,0.204744,0.2462146
14100,0.2027881,0.2428274
14200,0.2008556,0.239508
14300,0.1989462,0.2362545
14400,0.1970595,0.2330654
14500,0.1951953,0.2299387
14600,0.1933533,0.2268731
14700,0.1915333,0.2238669
14800,0.1897348,0.2209185
14900,0.1879577,0.2180266
15000,0.1862016,0.2151897
15100,0.1844664,0.2124064
15200,0.1827516,0.2096753
15300,0.181057,0.2069953
15400,0.1793824,0.204365
15500,0.1777275,0.2017832
15600,0.176092,0.1992487
15700,0.1744756,0.1967604
15800,0.1728781,0.1943173
15900,0.1712992,0.1919181
16000,0.1697387,0.1895619
16100,0.1681963,0.1872476
16200,0.1666718,0.1849744
16300,0.1651648,0.1827412
16400,0.1636753,0.180547
16500,0.1622028,0.178391
16600,0.1607472,0.1762723
16700,0.1593083,0.1741901
16800,0.1578858,0.1721436
16900,0.1564795,0.1701319
17000,0.1550891,0.1681542
17100,0.1537145,0.1662098
17200,0.1523554,0.164298
17300,0.1510116,0.1624181
17400,0.1496828,0.1605692
17500,0.148369,0.1587509
17600,0.1470698,0.1569623
17700,0.145785,0.1552029
17800,0.1445145,0.1534721
17900,0.1432581,0.1517691
18000,0.1420155,0.1500936
18100,0.1407866,0.1484447
18200,0.1395712,0.1468221
18300,0.1383691,0.1452251
18400,0.1371801,0.1436532
18500,0.136004,0.142106
18600,0.1348407,0.1405828
18700,0.1336899,0.1390832
18800,0.1325515,0.1376068
18900,0.1314254,0.136153
19000,0.1303113,0.1347213
19100,0.1292091,0.1333115
19200,0.1281186,0.1319229
19300,0.1270397,0.1305553
19400,0.1259722,0.1292081
19500,0.124916,0.1278809
19600,0.1238708,0.1265735
19700,0.1228366,0.1252854
19800,0.1218132,0.1240162
19900,0.1208005,0.1227655
20000,0.1197983,0.1215331
20100,0.1188064,0.1203185
20200,0.1178248,0.1191214
20300,0.1168533,0.1179415
20400,0.1158917,0.1167785
20500,0.11494,0.115632
20600,0.1139979,0.1145017
20700,0.1130654,0.1133874
20800,0.1121424,0.1122887
20900,0.1112287,0.1112054
21000,0.1103241,0.1101371
21100,0.1094286,0.1090836
21200,0.1085421,0.1080446
21300,0.1076644,0.10702
21400,0.1067955,0.1060093
21500,0.1059351,0.1050123
21600,0.1050832,0.1040289
21700,0.1042397,0.1030587
21800,0.1034045,0.1021016
21900,0.1025774,0.1011573
22000,0.1017584,0.1002255
22100,0.1009474,9.9306099E-02
22200,0.1001442,9.8398849E-02
22300,9.9348783E-02,9.7503543E-02
22400,9.8561004E-02,9.6619941E-02
22500,9.7780786E-02,9.5747873E-02
22600,9.7008027E-02,9.488713E-02
22700,9.6242636E-02,9.4037525E-02
22800,9.548454E-02,9.3198873E-02
22900,9.4733603E-02,9.2370979E-02
23000,9.3989767E-02,9.1553658E-02
23100,9.3252927E-02,9.0746738E-02
23200,9.2523009E-02,8.9950047E-02
23300,9.1799937E-02,8.9163437E-02
23400,9.1083594E-02,8.83867E-02
23500,9.0373911E-02,8.7619692E-02
23600,8.9670807E-02,8.6862259E-02
23700,8.8974208E-02,8.6114235E-02
23800,8.8284031E-02,8.537548E-02
23900,8.7600186E-02,8.464583E-02
24000,8.6922601E-02,8.3925135E-02
24100,8.6251199E-02,8.3213262E-02
24200,8.5585915E-02,8.2510069E-02
24300,8.4926672E-02,8.1815422E-02
24400,8.4273383E-02,8.1129164E-02
24500,8.3625987E-02,8.0451176E-02
24600,8.298441E-02,7.9781331E-02
24700,8.2348585E-02,7.9119489E-02
24800,8.1718445E-02,7.8465551E-02
24900,8.1093915E-02,7.7819355E-02