Energy,f’,f’’
1000,-8.82325,18.97439
1100,-7.509869,16.99037
1200,-6.612541,15.28803
1300,-6.008737,13.81915
1400,-5.608867,12.55004
1500,-5.340063,11.44427
1600,-5.177022,10.47541
1700,-5.210543,9.636207
1800,-5.188063,8.898671
1900,-5.212939,8.242898
2000,-5.277174,7.65694
2100,-5.379387,7.13124
2200,-5.508231,6.657531
2300,-5.665823,6.229008
2400,-5.851851,5.84001
2500,-6.119618,5.487723
2600,-6.367431,5.169758
2700,-6.682043,4.881777
2800,-7.009726,4.617664
2900,-7.392314,4.374723
3000,-7.850162,4.150704
3100,-8.397558,3.947763
3200,-9.091962,3.760025
3300,-10.03327,3.585961
3400,-11.48338,3.424232
3440,-12.38005,3.362727
3445,-12.51615,3.355161
3450,-12.65946,3.347622
3455,-12.81081,3.340109
3460,-12.97119,3.332622
3465,-13.14176,3.325162
3470,-13.32398,3.317728
3475,-13.51959,3.31032
3480,-13.73081,3.302938
3485,-13.96041,3.295582
3490,-14.21207,3.288251
3495,-14.49061,3.280946
3500,-14.80277,3.273666
3505,-15.15808,3.266411
3510,-15.57093,3.259182
3515,-16.06448,3.251978
3520,-16.67944,3.244799
3525,-17.49853,3.237644
3530,-18.73539,3.230515
3535,-21.38158,3.223409
3540,-21.39849,10.76738
3545,-18.76538,10.74802
3550,-17.55001,10.72867
3555,-16.75658,10.70934
3560,-16.1702,10.69001
3565,-15.70758,10.67069
3570,-15.32772,10.65139
3575,-15.0073,10.63209
3580,-14.73188,10.61281
3585,-14.49185,10.59353
3590,-14.28054,10.57427
3595,-14.09314,10.55502
3600,-13.92608,10.53578
3605,-13.77664,10.51655
3610,-13.64277,10.49733
3615,-13.52284,10.47813
3620,-13.4156,10.45894
3625,-13.32007,10.43976
3630,-13.23553,10.42059
3630,-13.23553,10.42059
3635,-13.16144,10.40143
3635,-13.16144,10.40143
3640,-13.09742,10.38229
3645,-13.04329,10.36316
3650,-12.99901,10.34405
3655,-12.9647,10.32495
3660,-12.94069,10.30586
3665,-12.92752,10.28679
3670,-12.92597,10.26773
3675,-12.93719,10.24868
3680,-12.9628,10.22965
3685,-13.00503,10.21063
3690,-13.06714,10.19163
3695,-13.15387,10.17264
3700,-13.27252,10.15367
3705,-13.43503,10.13471
3710,-13.66284,10.11576
3715,-14.00044,10.09684
3720,-14.56697,10.07792
3725,-15.98568,10.05903
3730,-15.43205,13.79229
3735,-14.18777,13.76774
3740,-13.53863,13.7432
3745,-13.08337,13.71867
3750,-12.7263,13.69415
3755,-12.42915,13.66965
3760,-12.17267,13.64516
3765,-11.94575,13.62068
3770,-11.74146,13.59621
3775,-11.55509,13.57175
3780,-11.38338,13.54731
3785,-11.2239,13.52288
3790,-11.07484,13.49846
3795,-10.93481,13.47406
3800,-10.80268,13.44967
3805,-10.67758,13.4253
3810,-10.55877,13.40094
3815,-10.44565,13.3766
3820,-10.33774,13.35227
3825,-10.23459,13.32795
3900,-9.105056,12.9652
3921,-8.902298,12.86434
3926,-8.861279,12.84038
3931,-8.823262,12.81643
3936,-8.788402,12.79251
3941,-8.756897,12.76861
3946,-8.728997,12.74472
3951,-8.705022,12.72086
3956,-8.685371,12.69701
3961,-8.670561,12.67319
3966,-8.661262,12.64939
3971,-8.65836,12.62561
3976,-8.663053,12.60185
3981,-8.677011,12.57811
3986,-8.70265,12.55439
3991,-8.743638,12.5307
3996,-8.805939,12.50702
4000,-8.877995,12.4881
4001,-8.900196,12.48337
4006,-9.048439,12.45974
4011,-9.309681,12.43613
4016,-9.992155,12.41255
4021,-9.699069,14.24475
4026,-9.06459,14.21965
4031,-8.723901,14.19458
4036,-8.478718,14.16953
4041,-8.281767,14.14451
4046,-8.114181,14.11952
4051,-7.966462,14.09455
4056,-7.833157,14.06961
4061,-7.710848,14.0447
4066,-7.597216,14.01982
4071,-7.490654,13.99496
4076,-7.389981,13.97013
4081,-7.294315,13.94532
4086,-7.20295,13.92055
4091,-7.115349,13.8958
4096,-7.031075,13.87108
4100,-6.965814,13.85133
4101,-6.949776,13.84639
4106,-6.871142,13.82173
4111,-6.79493,13.79709
4116,-6.720931,13.77248
4200,-5.698297,13.36345
4300,-4.79157,12.88771
4400,-4.072731,12.4248
4500,-3.482261,11.97524
4600,-3.145521,11.53984
4700,-2.738033,11.15401
4800,-2.387458,10.78472
4900,-2.157156,10.43949
5000,-1.896079,10.11699
5100,-1.666129,9.809722
5200,-1.462682,9.516732
5300,-1.271708,9.235643
5400,-1.11014,8.966494
5500,-0.9660239,8.708987
5600,-0.8372435,8.462452
5700,-0.7220042,8.226266
5800,-0.6187735,7.999849
5900,-0.5262346,7.782665
6000,-0.4432466,7.574213
6100,-0.3688174,7.374022
6200,-0.3020792,7.18166
6300,-0.2422697,6.996717
6400,-0.1887172,6.818814
6500,-0.1408264,6.647594
6600,-9.8068923E-02,6.482722
6700,-5.9973795E-02,6.323886
6800,-2.6120249E-02,6.170792
6900,3.8682206E-03,6.023164
7000,3.0330162E-02,5.880742
7100,4.6909429E-02,5.743412
7200,6.7145377E-02,5.611202
7300,8.4715389E-02,5.483504
7400,9.9842228E-02,5.360113
7500,0.1083451,5.240983
7600,0.1182256,5.12596
7700,0.1271708,5.014707
7800,0.1333663,4.907062
7900,0.1390247,4.802853
8000,0.1432248,4.701932
8100,0.1410596,4.604378
8200,0.1425855,4.509972
8300,0.142987,4.418463
8400,0.1423513,4.329735
8500,0.1407585,4.243672
8600,0.1382817,4.16017
8700,0.1349882,4.079127
8800,0.1309392,4.000444
8900,0.1261911,3.924031
9000,0.1209776,3.850183
9100,0.1152094,3.778441
9200,0.1089317,3.708726
9300,0.1021854,3.640958
9400,9.5008828E-02,3.575068
9500,8.7437011E-02,3.510982
9600,7.9502419E-02,3.448636
9700,7.1235098E-02,3.387967
9800,6.2662564E-02,3.328913
9900,5.3810548E-02,3.271418
10000,4.4702526E-02,3.215425
10100,3.5360433E-02,3.160882
10200,2.5804589E-02,3.107739
10300,1.6053507E-02,3.055947
10400,6.1246767E-03,3.005461
10500,-3.9660842E-03,2.956235
10600,-1.4203871E-02,2.908229
10700,-2.4574881E-02,2.861401
10800,-3.5066638E-02,2.815712
10900,-4.5667212E-02,2.771126
11000,-5.6365971E-02,2.727607
11100,-6.7152783E-02,2.685119
11200,-7.8018293E-02,2.643632
11300,-8.8954158E-02,2.603112
11400,-9.995231E-02,2.56353
11500,-0.111006,2.524857
11600,-0.1232697,2.487067
11700,-0.1344348,2.450144
11800,-0.1456332,2.414048
11900,-0.1568613,2.378756
12000,-0.1681147,2.344242
12100,-0.1793888,2.310485
12200,-0.1906773,2.277462
12300,-0.2028816,2.24516
12400,-0.2142049,2.213552
12500,-0.2255349,2.182616
12600,-0.2368685,2.152333
12700,-0.2482031,2.122684
12800,-0.2595367,2.093652
12900,-0.270867,2.065219
13000,-0.2821927,2.037369
13100,-0.293512,2.010085
13200,-0.3048235,1.983353
13300,-0.3161262,1.957156
13400,-0.3274189,1.931482
13500,-0.338701,1.906315
13600,-0.3499717,1.881643
13700,-0.3612303,1.857452
13800,-0.3724766,1.83373
13900,-0.3837102,1.810465
14000,-0.3949311,1.787644
14100,-0.4061392,1.765256
14200,-0.4173343,1.743291
14300,-0.428517,1.721737
14400,-0.439687,1.700585
14500,-0.451023,1.679824
14600,-0.4621705,1.659446
14700,-0.4733071,1.63944
14800,-0.4844334,1.619798
14900,-0.4955498,1.600509
15000,-0.5066573,1.581566
15100,-0.5177565,1.56296
15200,-0.5288479,1.544684
15300,-0.5399279,1.526728
15400,-0.5526935,1.50911
15500,-0.5637671,1.491808
15600,-0.5748384,1.474805
15700,-0.5859076,1.458094
15800,-0.5969762,1.441668
15900,-0.6080451,1.42552
16000,-0.6191164,1.409645
16100,-0.6301937,1.394036
16200,-0.6426657,1.378701
16300,-0.6537526,1.363633
16400,-0.6648446,1.348813
16500,-0.6759456,1.334236
16600,-0.6870577,1.319896
16700,-0.6981829,1.305789
16800,-0.7093228,1.29191
16900,-0.7204798,1.278252
17000,-0.7316558,1.264812
17100,-0.742853,1.251585
17200,-0.7540736,1.238566
17300,-0.7653196,1.225752
17400,-0.7765998,1.213136
17500,-0.7901596,1.200751
17600,-0.8015024,1.188562
17700,-0.8128793,1.17656
17800,-0.824293,1.164742
17900,-0.8357466,1.153103
18000,-0.8472427,1.14164
18100,-0.858784,1.130349
18200,-0.8703736,1.119227
18300,-0.8820143,1.108271
18400,-0.8937095,1.097477
18500,-0.9054624,1.086842
18600,-0.9172763,1.076363
18700,-0.9291546,1.066036
18800,-0.9411005,1.055859
18900,-0.9531183,1.045829
19000,-0.9652115,1.035943
19100,-0.977384,1.026198
19200,-0.98964,1.016592
19300,-1.001983,1.007122
19400,-1.014419,0.9977845
19500,-1.026951,0.988578
19600,-1.039585,0.9794997
19700,-1.052325,0.9705473
19800,-1.065176,0.9617186
19900,-1.078144,0.953011
20000,-1.091234,0.9444223
20100,-1.104453,0.9359505
20200,-1.117805,0.9275933
20300,-1.131297,0.9193489
20400,-1.144937,0.9112149
20500,-1.158731,0.9031894
20600,-1.172685,0.8952705
20700,-1.186809,0.8874564
20800,-1.201108,0.8797452
20900,-1.215593,0.8721349
21000,-1.230271,0.8646238
21100,-1.245153,0.8572103
21200,-1.260247,0.8498926
21300,-1.275563,0.8426691
21400,-1.291113,0.835538
21500,-1.306908,0.8284979
21600,-1.322961,0.8215471
21700,-1.339283,0.8146841
21800,-1.355888,0.8079076
21900,-1.372791,0.8012159
22000,-1.390007,0.7946076
22100,-1.407552,0.7880814
22200,-1.425444,0.7816359
22300,-1.443701,0.7752699
22400,-1.462343,0.7689818
22500,-1.481391,0.7627704
22600,-1.500868,0.7566345
22700,-1.520799,0.7505729
22800,-1.541208,0.7445844
22900,-1.562127,0.7386677
23000,-1.583584,0.7328217
23100,-1.605613,0.7270453
23200,-1.62825,0.7213374
23300,-1.651535,0.7156969
23400,-1.67551,0.7101226
23500,-1.700223,0.7046137
23600,-1.725724,0.6991689
23700,-1.75207,0.6937873
23800,-1.779323,0.6884682
23900,-1.807554,0.6832101
24000,-1.836837,0.6780125
24100,-1.86726,0.6728742
24200,-1.898916,0.6677943
24300,-1.931914,0.6627722
24400,-1.966376,0.6578068
24500,-2.002439,0.6528971
24600,-2.04026,0.6480425
24700,-2.080021,0.6432421
24800,-2.121929,0.6384951
24900,-2.166229,0.6338006