Energy,f’,f’’
1000,-7.547268,15.92996
1100,-6.661947,14.20461
1200,-6.087759,12.73542
1300,-5.71652,11.47769
1400,-5.589616,10.40357
1500,-5.477894,9.482906
1600,-5.441972,8.681175
1700,-5.468252,7.97837
1800,-5.540044,7.35836
1900,-5.653021,6.80827
2000,-5.803083,6.317729
2100,-5.988536,5.878265
2200,-6.248851,5.486553
2300,-6.557127,5.136201
2400,-6.859633,4.820486
2500,-7.235989,4.533768
2600,-7.656535,4.272769
2700,-8.176187,4.034267
2800,-8.818461,3.816246
2900,-9.670216,3.615805
3000,-10.91386,3.43106
3076,-12.46001,3.302033
3081,-12.59871,3.293813
3086,-12.74461,3.285625
3091,-12.89852,3.277469
3096,-13.06138,3.269345
3100,-13.19889,3.262869
3101,-13.23436,3.261252
3106,-13.41883,3.253192
3111,-13.61651,3.245162
3116,-13.82952,3.237163
3121,-14.06057,3.229196
3126,-14.31317,3.221259
3131,-14.59201,3.213352
3136,-14.90351,3.205477
3141,-15.25694,3.197631
3146,-15.66612,3.189816
3151,-16.15346,3.182031
3156,-16.75841,3.174275
3161,-17.5617,3.166549
3166,-18.77458,3.158853
3171,-21.42193,3.151186
3176,-21.0941,10.26996
3181,-18.75737,10.27171
3186,-17.66061,10.2732
3191,-16.94555,10.27443
3196,-16.41935,10.2754
3200,-16.0822,10.27599
3201,-16.00664,10.27611
3206,-15.66999,10.27655
3211,-15.38823,10.27673
3216,-15.14817,10.27665
3221,-14.94114,10.27631
3226,-14.76113,10.27571
3231,-14.60389,10.27485
3233,-14.54664,10.27444
3236,-14.4663,10.27373
3238,-14.41624,10.27321
3241,-14.3461,10.27235
3243,-14.30249,10.27173
3246,-14.24161,10.27071
3248,-14.20394,10.26999
3251,-14.15166,10.26882
3253,-14.11956,10.26799
3256,-14.07544,10.26666
3258,-14.04869,10.26573
3261,-14.01251,10.26425
3263,-13.99102,10.26322
3266,-13.96274,10.26158
3268,-13.94655,10.26045
3271,-13.92633,10.25866
3273,-13.91562,10.25742
3278,-13.89898,10.25414
3283,-13.89786,10.2506
3288,-13.91414,10.24682
3293,-13.95064,10.24277
3298,-14.01164,10.23848
3300,-14.04427,10.23669
3303,-14.10378,10.23394
3308,-14.23799,10.22914
3313,-14.43382,10.2241
3318,-14.73154,10.21881
3323,-15.23693,10.21327
3328,-16.46404,10.20748
3333,-16.20037,13.77696
3338,-14.9295,13.77388
3343,-14.2829,13.77044
3348,-13.82938,13.76664
3353,-13.47204,13.76248
3358,-13.17281,13.75796
3363,-12.91281,13.75309
3368,-12.68119,13.74786
3373,-12.47124,13.74228
3378,-12.2784,13.73635
3383,-12.09952,13.73007
3388,-11.93228,13.72344
3393,-11.77496,13.71646
3398,-11.62619,13.70914
3400,-11.56884,13.70611
3403,-11.48493,13.70147
3408,-11.35034,13.69347
3413,-11.22171,13.68512
3418,-11.0985,13.67643
3423,-10.98023,13.66741
3428,-10.8665,13.65805
3500,-9.607114,13.48725
3507,-9.516952,13.46717
3512,-9.456094,13.45247
3517,-9.39832,13.43746
3522,-9.343773,13.42216
3527,-9.292649,13.40656
3532,-9.245189,13.39067
3537,-9.201705,13.37449
3542,-9.16259,13.35802
3547,-9.128353,13.34126
3552,-9.099651,13.32422
3557,-9.077361,13.3069
3562,-9.062658,13.28929
3567,-9.057184,13.27141
3572,-9.063308,13.25325
3577,-9.084612,13.23483
3582,-9.126896,13.21612
3587,-9.200444,13.19715
3592,-9.326306,13.17792
3597,-9.559665,13.15842
3600,-9.827909,13.1466
3602,-10.16836,13.13866
3607,-10.00039,14.98174
3612,-9.305012,14.9597
3617,-8.935664,14.9374
3622,-8.667227,14.91486
3627,-8.449004,14.89208
3632,-8.261131,14.86905
3637,-8.093699,14.84579
3642,-7.941078,14.82228
3647,-7.79972,14.79854
3652,-7.667282,14.77457
3657,-7.542096,14.75037
3662,-7.422966,14.72594
3667,-7.308975,14.70129
3672,-7.199431,14.67641
3677,-7.093771,14.65132
3682,-6.991563,14.626
3687,-6.892433,14.60047
3692,-6.796091,14.57473
3697,-6.702277,14.54877
3700,-6.647115,14.5331
3702,-6.610787,14.52261
3800,-5.125007,13.97143
3900,-3.970709,13.3467
4000,-3.050324,12.6778
4100,-2.313469,11.98215
4200,-2.625012,11.43588
4300,-2.186286,10.953
4400,-2.216123,10.54749
4500,-1.923639,10.18789
4600,-1.669173,9.847227
4700,-1.432978,9.523765
4800,-1.236161,9.214001
4900,-1.062843,8.919193
5000,-0.9098278,8.638379
5100,-0.7744679,8.370672
5200,-0.654547,8.115259
5300,-0.5481927,7.871386
5400,-0.453812,7.63836
5500,-0.3700381,7.415538
5600,-0.2956929,7.202325
5700,-0.2297547,6.99817
5800,-0.1713331,6.802559
5900,-0.1196498,6.615019
6000,-7.4020073E-02,6.435105
6100,-3.3840429E-02,6.262406
6200,1.4230805E-03,6.096535
6300,3.1089567E-02,5.937139
6400,5.0879266E-02,5.784173
6500,7.403744E-02,5.637283
6600,9.3924217E-02,5.495913
6700,0.1068765,5.359913
6800,0.1210492,5.229092
6900,0.1327801,5.10301
7000,0.142286,4.981436
7100,0.1497621,4.864154
7200,0.1553849,4.750963
7300,0.1528909,4.642115
7400,0.1551526,4.537039
7500,0.1560258,4.435522
7600,0.1556291,4.337403
7700,0.1540701,4.24253
7800,0.1514463,4.15076
7900,0.1478464,4.061957
8000,0.1433507,3.975995
8100,0.1380321,3.89275
8200,0.1319565,3.812109
8300,0.1251831,3.733962
8400,0.1177655,3.658208
8500,0.1097508,3.584748
8600,0.1011806,3.513489
8700,9.2090599E-02,3.444345
8800,8.250986E-02,3.37723
8900,7.24608E-02,3.312066
9000,6.2621608E-02,3.249214
9100,5.2482963E-02,3.188166
9200,4.2073201E-02,3.128853
9300,3.1418052E-02,3.071208
9400,2.0541511E-02,3.01517
9500,9.4652139E-03,2.960676
9600,-1.7906786E-03,2.907671
9700,-1.3207623E-02,2.856101
9800,-2.4768839E-02,2.805912
9900,-3.6457945E-02,2.757055
10000,-4.882887E-02,2.709485
10100,-6.0764819E-02,2.663161
10200,-7.2795205E-02,2.618036
10300,-8.4902905E-02,2.574065
10400,-9.7077258E-02,2.531211
10500,-0.1098789,2.489434
10600,-0.1221056,2.448706
10700,-0.1344481,2.408986
10800,-0.1468249,2.370239
10900,-0.1592294,2.332435
11000,-0.1716561,2.295541
11100,-0.1840999,2.259528
11200,-0.1965558,2.22437
11300,-0.2090199,2.190037
11400,-0.2214884,2.156504
11500,-0.2339579,2.123746
11600,-0.2464256,2.09174
11700,-0.2588885,2.060462
11800,-0.2713446,2.029889
11900,-0.2837917,2
12000,-0.2962282,1.970776
12100,-0.3086526,1.942195
12200,-0.3210635,1.91424
12300,-0.3334602,1.886891
12400,-0.3458416,1.860131
12500,-0.3582077,1.833943
12600,-0.3706809,1.808311
12700,-0.3830182,1.78322
12800,-0.3953367,1.758654
12900,-0.4076386,1.734597
13000,-0.4199244,1.711036
13100,-0.4321944,1.687957
13200,-0.444449,1.665347
13300,-0.4566892,1.643193
13400,-0.4689154,1.621483
13500,-0.4811289,1.600204
13600,-0.4933309,1.579345
13700,-0.5055245,1.558896
13800,-0.5191082,1.538859
13900,-0.5312875,1.519227
14000,-0.5434561,1.499972
14100,-0.5556182,1.481085
14200,-0.5677752,1.462557
14300,-0.5799294,1.444378
14400,-0.5920825,1.426539
14500,-0.6054318,1.40905
14600,-0.6175894,1.391891
14700,-0.6297508,1.375048
14800,-0.6419185,1.358513
14900,-0.6540945,1.342277
15000,-0.6662812,1.326335
15100,-0.6784811,1.310677
15200,-0.6906964,1.295299
15300,-0.70293,1.280193
15400,-0.7151844,1.265352
15500,-0.7274631,1.25077
15600,-0.7397805,1.236442
15700,-0.7540373,1.222391
15800,-0.7664136,1.208589
15900,-0.7788228,1.195024
16000,-0.7912695,1.181688
16100,-0.8037571,1.168578
16200,-0.816289,1.155688
16300,-0.8288687,1.143013
16400,-0.8415002,1.130548
16500,-0.8541871,1.11829
16600,-0.8669332,1.106232
16700,-0.8797427,1.094371
16800,-0.8926196,1.082702
16900,-0.9055684,1.071221
17000,-0.9185936,1.059925
17100,-0.9316999,1.048808
17200,-0.9448919,1.037868
17300,-0.9581745,1.027101
17400,-0.9715533,1.016502
17500,-0.9850336,1.006068
17600,-0.998621,0.9957964
17700,-1.012321,0.985683
17800,-1.02614,0.975725
17900,-1.040085,0.9659187
18000,-1.054161,0.9562613
18100,-1.068377,0.9467497
18200,-1.082739,0.937381
18300,-1.097254,0.9281524
18400,-1.111931,0.9190607
18500,-1.126778,0.9101035
18600,-1.141804,0.901278
18700,-1.157019,0.8925816
18800,-1.17243,0.884012
18900,-1.188049,0.8755664
19000,-1.203887,0.8672425
19100,-1.219955,0.8590379
19200,-1.236265,0.8509504
19300,-1.252828,0.8429778
19400,-1.26966,0.8351176
19500,-1.286774,0.827368
19600,-1.304185,0.8197268
19700,-1.321909,0.8121919
19800,-1.339963,0.8047615
19900,-1.358365,0.7974334
20000,-1.377136,0.7902059
20100,-1.396295,0.783077
20200,-1.415865,0.776045
20300,-1.43587,0.7691082
20400,-1.456336,0.7622647
20500,-1.477291,0.7555128
20600,-1.498764,0.7488509
20700,-1.520787,0.7422776
20800,-1.543397,0.7357911
20900,-1.566631,0.7293898
21000,-1.590532,0.7230724
21100,-1.615144,0.7168372
21200,-1.640517,0.7106829
21300,-1.666707,0.7046083
21400,-1.693773,0.6986116
21500,-1.721782,0.6926916
21600,-1.750809,0.6868471
21700,-1.780935,0.6810767
21800,-1.812253,0.6753793
21900,-1.844865,0.6697534
22000,-1.878889,0.664198
22100,-1.914456,0.6587118
22200,-1.951717,0.6532937
22300,-1.990842,0.6479427
22400,-2.032033,0.6426573
22500,-2.075517,0.6374368
22600,-2.121566,0.6322799
22700,-2.170496,0.6271857
22800,-2.222685,0.6221532
22900,-2.278592,0.6171812
23000,-2.338771,0.6122689
23100,-2.403907,0.6074153
23200,-2.474861,0.6026193
23300,-2.553448,0.5978819
23400,-2.639666,0.5932006
23500,-2.736155,0.5885743
23600,-2.845569,0.5840023
23700,-2.97172,0.5794834
23800,-3.120357,0.5750171
23900,-3.300757,0.5706024
24000,-3.529313,0.5662385
24100,-3.839361,0.5619246
24200,-4.317266,0.55766
24253,-4.730181,0.5554196
24258,-4.78054,0.5552089
24263,-4.833782,0.5549983
24268,-4.890203,0.5547879
24273,-4.95025,0.5545776
24278,-5.014359,0.5543674
24283,-5.083168,0.5541573
24288,-5.157347,0.5539474
24293,-5.237827,0.5537376
24298,-5.325797,0.5535279
24300,-5.363367,0.5534441
24303,-5.422692,0.5533183
24308,-5.530597,0.5531088
24313,-5.652196,0.5528995
24318,-5.791554,0.5526902
24323,-5.95455,0.5524811
24328,-6.150872,0.5522722
24333,-6.397691,0.5520633
24338,-6.729667,0.5518546
24343,-7.238419,0.5516459
24348,-8.366171,0.5514374
24353,-8.219122,3.632562
24358,-7.188938,3.631189
24363,-6.695829,3.629816
24368,-6.368249,3.628445
24373,-6.122331,3.627075
24378,-5.925203,3.625706
24383,-5.760712,3.624339
24388,-5.61943,3.622973
24393,-5.495659,3.621609
24398,-5.385434,3.620245
24400,-5.344545,3.619701
24403,-5.286128,3.618884
24408,-5.195693,3.617523
24413,-5.11272,3.616164
24418,-5.036033,3.614806
24423,-4.964714,3.61345
24428,-4.898098,3.612095
24433,-4.835554,3.610741
24438,-4.77665,3.609388
24443,-4.72094,3.608037
24448,-4.66813,3.606687
24500,-4.237199,3.592727
24600,-3.715423,3.566278
24700,-3.368468,3.54034
24800,-3.107569,3.514903
24900,-2.89824,3.489954