Energy,f’,f’’
1000,-0.6957621,6.410808
1100,-0.4481739,5.566113
1200,-0.3091873,4.879749
1300,-0.2369176,4.314049
1400,-0.2074443,3.841979
1500,-0.2058219,3.443748
1600,-0.2225494,3.104574
1700,-0.2514465,2.813226
1800,-0.2884253,2.561043
1900,-0.3452015,2.342734
2000,-0.3906013,2.151919
2100,-0.4380592,1.983626
2200,-0.4868174,1.834398
2300,-0.5458561,1.701941
2400,-0.5959952,1.584025
2500,-0.6464024,1.478101
2600,-0.6970471,1.382576
2700,-0.7479747,1.296116
2800,-0.7992911,1.217594
2900,-0.8511531,1.146058
3000,-0.9037634,1.080692
3100,-0.9575731,1.021258
3200,-1.012601,0.9666913
3300,-1.069204,0.9164667
3400,-1.127802,0.8701285
3500,-1.188892,0.8272802
3600,-1.253068,0.7875746
3700,-1.321054,0.7507075
3800,-1.393746,0.7164108
3900,-1.472274,0.6844474
4000,-1.558104,0.6546077
4100,-1.653182,0.6267048
4200,-1.760183,0.6005725
4300,-1.882931,0.5760619
4400,-2.027165,0.55304
4500,-2.202078,0.5313869
4600,-2.423764,0.5109949
4700,-2.724369,0.4917665
4800,-3.184063,0.4736137
4869,-3.727909,0.4616736
4874,-3.782479,0.4608261
4879,-3.840273,0.459981
4884,-3.901673,0.4591383
4889,-3.967147,0.4582978
4894,-4.037243,0.4574597
4899,-4.112632,0.4566239
4900,-4.128413,0.456457
4904,-4.194132,0.4557905
4909,-4.282796,0.4549593
4914,-4.379935,0.4541304
4919,-4.48727,0.4533038
4924,-4.607087,0.4524795
4929,-4.742578,0.4516574
4934,-4.898272,0.4508376
4939,-5.081012,0.45002
4944,-5.301791,0.4492047
4949,-5.580113,0.4483916
4954,-5.955582,0.4475808
4959,-6.531345,0.4467721
4964,-7.796412,0.4459656
4969,-7.702693,4.00774
4974,-6.473956,4.000078
4979,-5.890631,3.992447
4984,-5.502749,3.984846
4989,-5.211081,3.977276
4994,-4.976868,3.969735
4999,-4.780962,3.962224
5000,-4.745332,3.960726
5004,-4.612441,3.954743
5009,-4.464501,3.947292
5014,-4.332573,3.93987
5019,-4.213491,3.932476
5024,-4.104941,3.925112
5029,-4.005195,3.917778
5034,-3.912897,3.910471
5039,-3.827005,3.903193
5044,-3.746678,3.895944
5049,-3.671236,3.888723
5054,-3.600102,3.881531
5059,-3.532811,3.874366
5064,-3.468966,3.867229
5100,-3.086066,3.816654
5200,-2.400337,3.683293
5300,-1.965391,3.559625
5400,-1.650954,3.444751
5500,-1.408125,3.337874
5600,-1.212882,3.238288
5700,-1.051504,3.145362
5800,-0.9153646,3.058534
5900,-0.7986606,2.977299
6000,-0.6972883,2.901207
6100,-0.6082336,2.829851
6200,-0.5292137,2.762864
6300,-0.4584562,2.699916
6400,-0.3945571,2.640707
6500,-0.2691255,2.58041
6600,-0.2125479,2.516903
6700,-0.1612648,2.455691
6800,-0.1146628,2.396663
6900,-7.2221696E-02,2.339717
7000,-3.3495825E-02,2.284754
7100,1.8984809E-03,2.231682
7200,3.4293961E-02,2.180414
7300,6.3981034E-02,2.13087
7400,9.1214016E-02,2.082971
7500,0.1162174,2.036646
7600,0.1391898,1.991826
7700,0.1603075,1.948445
7800,0.179728,1.906442
7900,0.1975918,1.86576
8000,0.214025,1.826343
8100,0.229141,1.788138
8200,0.2430418,1.751097
8300,0.2558195,1.715172
8400,0.2675568,1.680319
8500,0.2783288,1.646495
8600,0.2878587,1.613663
8700,0.2966955,1.581786
8800,0.3049549,1.550825
8900,0.3124755,1.520744
9000,0.3195446,1.491645
9100,0.326014,1.463362
9200,0.3319253,1.435865
9300,0.337317,1.409124
9400,0.3422243,1.383112
9500,0.34668,1.357803
9600,0.3507144,1.33317
9700,0.3543552,1.309191
9800,0.3576287,1.285843
9900,0.3605587,1.263102
10000,0.362514,1.240973
10100,0.3647772,1.219426
10200,0.3667628,1.198431
10300,0.3684888,1.17797
10400,0.3699721,1.158023
10500,0.3712282,1.138574
10600,0.371996,1.119607
10700,0.3728293,1.101109
10800,0.3734776,1.083061
10900,0.3739522,1.065449
11000,0.3742641,1.048258
11100,0.3744236,1.031476
11200,0.3744406,1.01509
11300,0.3743239,0.9990863
11400,0.3740822,0.983454
11500,0.3737235,0.9681814
11600,0.3732552,0.9532574
11700,0.3726844,0.9386716
11800,0.3720176,0.9244137
11900,0.371261,0.910474
12000,0.3704204,0.8968428
12100,0.3695013,0.8835113
12200,0.3685089,0.8704708
12300,0.367448,0.8577125
12400,0.366323,0.8452287
12500,0.3651384,0.8330112
12600,0.363898,0.8210527
12700,0.3626058,0.8093458
12800,0.3612653,0.7978835
12900,0.3598798,0.7866591
13000,0.3584526,0.7756659
13100,0.3569865,0.7648976
13200,0.3554845,0.7543482
13300,0.3539492,0.7440117
13400,0.3523832,0.7338825
13500,0.3507887,0.723955
13600,0.349168,0.7142238
13700,0.3475232,0.704684
13800,0.3458564,0.6953303
13900,0.3441693,0.6861582
14000,0.3424639,0.6771628
14100,0.3407416,0.6683396
14200,0.3390042,0.6596844
14300,0.3372531,0.6511927
14400,0.3354897,0.6428607
14500,0.3337154,0.6346842
14600,0.3319314,0.6266595
14700,0.3301389,0.6187828
14800,0.328339,0.6110504
14900,0.3265328,0.6034589
15000,0.3247213,0.5960049
15100,0.3229055,0.5886851
15200,0.3210861,0.5814963
15300,0.3192641,0.5744354
15400,0.3174403,0.5674993
15500,0.3156154,0.5606852
15600,0.3137901,0.5539902
15700,0.311965,0.5474117
15800,0.3100613,0.540947
15900,0.3082391,0.5345935
16000,0.306419,0.5283484
16100,0.3046015,0.5222096
16200,0.3027871,0.5161744
16300,0.3009762,0.5102407
16400,0.2991694,0.5044061
16500,0.2973669,0.4986685
16600,0.2955693,0.4930256
16700,0.2937768,0.4874756
16800,0.2919898,0.4820164
16900,0.2902086,0.4766458
17000,0.2884336,0.4713621
17100,0.286665,0.4661635
17200,0.284903,0.461048
17300,0.283148,0.4560142
17400,0.2814001,0.4510599
17500,0.2796596,0.4461837
17600,0.2779266,0.441384
17700,0.2762014,0.4366592
17800,0.2744842,0.4320077
17900,0.272775,0.427428
18000,0.271074,0.4229186
18100,0.2693815,0.4184782
18200,0.2676974,0.4141053
18300,0.266022,0.4097987
18400,0.2643552,0.4055568
18500,0.2626974,0.4013785
18600,0.2610484,0.3972626
18700,0.2594084,0.3932077
18800,0.2577775,0.3892128
18900,0.2561558,0.3852765
19000,0.2545432,0.3813979
19100,0.2529399,0.3775757
19200,0.2513458,0.3738089
19300,0.2497612,0.3700965
19400,0.2481859,0.3664374
19500,0.24662,0.3628305
19600,0.2450635,0.359275
19700,0.2435164,0.3557698
19800,0.2419789,0.352314
19900,0.2404507,0.3489067
20000,0.2389321,0.345547
20100,0.2374229,0.342234
20200,0.2359232,0.3389668
20300,0.234433,0.3357448
20400,0.2329522,0.3325669
20500,0.2314808,0.3294324
20600,0.2300189,0.3263405
20700,0.2285664,0.3232905
20800,0.2271233,0.3202817
20900,0.2256895,0.3173132
21000,0.2242651,0.3143843
21100,0.22285,0.3114945
21200,0.2214441,0.3086429
21300,0.2200474,0.305829
21400,0.2186595,0.3030521
21500,0.217275,0.3003114
21600,0.2142213,0.2976252
21700,0.2128632,0.2949789
21800,0.2115153,0.292367
21900,0.2101768,0.2897886
22000,0.2088476,0.2872433
22100,0.2075277,0.2847306
22200,0.2062169,0.2822498
22300,0.2049152,0.2798005
22400,0.2036226,0.2773821
22500,0.2023389,0.274994
22600,0.2010641,0.2726359
22700,0.1997982,0.2703072
22800,0.1985412,0.2680074
22900,0.1972928,0.265736
23000,0.1960532,0.2634926
23100,0.1948222,0.2612767
23200,0.1935997,0.2590879
23300,0.1923858,0.2569257
23400,0.1911803,0.2547897
23500,0.1899833,0.2526796
23600,0.1887945,0.2505948
23700,0.187614,0.2485349
23800,0.1864417,0.2464997
23900,0.1852776,0.2444887
24000,0.1841215,0.2425015
24100,0.1829734,0.2405377
24200,0.1818333,0.238597
24300,0.1807011,0.236679
24400,0.1795767,0.2347834
24500,0.17846,0.2329098
24600,0.177351,0.2310579
24700,0.1762496,0.2292274
24800,0.1751558,0.2274179
24900,0.1740693,0.2256291