Energy,f’,f’’
1000,-28.28168,24.6494
1100,-26.62964,22.86701
1200,-25.42819,21.22618
1300,-24.57543,19.7163
1400,-24.00474,18.32848
1500,-23.67898,17.05223
1600,-23.59636,15.88492
1700,-23.96517,14.8343
1800,-24.49813,13.91281
1900,-25.05593,13.0847
2000,-25.87127,12.32797
2100,-27.03973,11.63444
2200,-28.76866,10.9972
2300,-31.67515,10.41016
2387,-37.44437,9.936191
2392,-38.03713,9.909922
2397,-38.68654,9.883753
2400,-39.10706,9.868101
2402,-39.40163,9.857687
2407,-40.19362,9.83172
2412,-41.07616,9.805856
2417,-42.06651,9.780089
2422,-43.18634,9.754423
2427,-44.46371,9.728855
2432,-45.93506,9.703386
2437,-47.6494,9.678014
2442,-49.67344,9.65274
2447,-52.10176,9.627561
2452,-55.07253,9.602479
2457,-58.79906,9.577492
2462,-63.6314,9.552601
2467,-70.20275,9.527804
2472,-79.83244,9.503102
2477,-96.08204,9.478493
2482,-137.634,9.453977
2487,-118.8456,120.8143
2488,-106.6401,118.513
2492,-77.01289,109.8481
2493,-72.03902,107.8104
2497,-56.95007,100.1323
2498,-54.03335,98.32494
2500,-48.92828,94.83625
2502,-44.6197,91.50879
2503,-42.71378,89.9031
2507,-36.41043,83.84267
2508,-35.11091,82.4137
2512,-30.77944,77.01555
2513,-29.88386,75.74175
2517,-26.91223,70.92613
2518,-26.30415,69.78878
2522,-24.32465,65.48529
2523,-23.93161,64.46812
2527,-22.71052,60.61654
2528,-22.48547,59.70517
2532,-21.86994,56.25232
2533,-21.78235,55.43483
2537,-21.67435,52.33453
2538,-21.70515,51.59976
2542,-22.04795,48.81166
2543,-22.18748,48.15053
2547,-22.96002,45.63933
2548,-23.20755,45.04325
2552,-24.4258,42.778
2553,-24.79046,42.24002
2557,-26.51712,40.19356
2558,-27.02237,39.70706
2562,-29.39191,37.85551
2563,-30.08423,37.41513
2567,-33.36323,35.73748
2568,-34.33685,35.33807
2572,-39.08767,33.81581
2573,-40.553,33.45322
2577,-48.20295,32.06999
2578,-51.62503,31.7402
2582,-67.06998,30.48167
2583,-74.42585,30.18147
2588,-74.51706,104.0385
2593,-42.69178,95.25292
2598,-28.61735,87.46044
2600,-24.75031,84.59308
2603,-20.11119,80.53589
2608,-14.51846,74.37022
2613,-10.70171,68.87048
2618,-8.06579,63.95523
2623,-6.256645,59.55482
2628,-5.045369,55.60795
2633,-4.276146,52.06208
2638,-3.838427,48.87076
2643,-3.651771,45.99405
2648,-3.656271,43.39652
2653,-3.806664,41.04751
2658,-4.068274,38.92013
2663,-4.414345,36.99044
2668,-4.823993,35.23779
2673,-5.280934,33.64361
2678,-5.772296,32.19185
2683,-6.287825,30.86803
2700,-8.204957,27.16588
2800,-17.61427,18.34912
2900,-23.36709,18.77652
2969,-23.77978,23.83618
2974,-23.54421,24.45771
2979,-23.25012,25.12714
2984,-22.89085,25.84799
2989,-22.45887,26.62427
2994,-21.9458,27.4602
2999,-21.34211,28.36057
3000,-21.20961,28.5488
3004,-21.2165,28.49516
3009,-21.24077,28.41977
3014,-21.2777,28.34467
3019,-21.32959,28.26987
3024,-21.39949,28.19536
3029,-21.49167,28.12115
3034,-21.61222,28.04722
3039,-21.77038,27.97358
3044,-21.98098,27.90023
3049,-22.27037,27.82716
3054,-22.69209,27.75438
3059,-23.38628,27.68188
3064,-25.01427,27.60966
3069,-24.7975,32.36323
3074,-23.04626,32.27303
3079,-22.17342,32.18335
3084,-21.56802,32.09418
3089,-21.09512,32.00554
3094,-20.70195,31.91739
3099,-20.36242,31.82974
3100,-20.29951,31.81227
3104,-20.06155,31.74259
3109,-19.79006,31.65594
3114,-19.54169,31.56977
3119,-19.3121,31.48409
3124,-19.09806,31.39889
3129,-18.89721,31.31417
3134,-18.70768,31.22993
3139,-18.52802,31.14615
3144,-18.35704,31.06283
3149,-18.19379,30.97999
3154,-18.03749,30.89759
3159,-17.88746,30.81566
3164,-17.74314,30.73417
3200,-16.83721,30.16047
3300,-15.06505,28.67784
3400,-13.94481,27.34036
3457,-13.56396,26.63526
3462,-13.54167,26.57529
3467,-13.52165,26.51561
3472,-13.50408,26.45623
3477,-13.48918,26.39713
3482,-13.47722,26.33833
3487,-13.46854,26.27981
3492,-13.46352,26.22158
3497,-13.4627,26.16364
3500,-13.46448,26.129
3502,-13.46672,26.10597
3507,-13.47645,26.04859
3512,-13.49304,25.99149
3517,-13.5181,25.93467
3522,-13.55392,25.87812
3527,-13.60398,25.82185
3532,-13.67393,25.76585
3537,-13.77375,25.71013
3542,-13.92399,25.65468
3547,-14.17884,25.59949
3552,-14.80771,25.54457
3557,-14.62814,27.27847
3562,-13.99807,27.21697
3567,-13.6722,27.15582
3572,-13.44234,27.09503
3577,-13.26208,27.0346
3582,-13.10963,26.97452
3587,-12.97696,26.9148
3592,-12.85864,26.85542
3597,-12.75128,26.79639
3600,-12.69114,26.76114
3602,-12.65259,26.7377
3607,-12.561,26.67935
3612,-12.47532,26.62134
3617,-12.39469,26.56367
3622,-12.31844,26.50633
3627,-12.24602,26.44932
3632,-12.17702,26.39264
3637,-12.11108,26.33629
3642,-12.04793,26.28027
3647,-11.98732,26.22456
3652,-11.92906,26.16918
3700,-11.46449,25.65344
3753,-11.10967,25.11607
3758,-11.08453,25.06705
3763,-11.06101,25.0183
3768,-11.03921,24.96983
3773,-11.01924,24.92164
3778,-11.00124,24.87372
3783,-10.98541,24.82608
3788,-10.97196,24.77871
3793,-10.96119,24.73162
3798,-10.95346,24.68479
3800,-10.95133,24.66614
3803,-10.94927,24.63824
3808,-10.94928,24.59194
3813,-10.95439,24.54592
3818,-10.96592,24.50016
3823,-10.98584,24.45466
3828,-11.01731,24.40943
3833,-11.06591,24.36445
3838,-11.14285,24.31974
3843,-11.27679,24.27528
3848,-11.5953,24.23108
3853,-11.61613,25.24628
3858,-11.19345,25.20233
3863,-10.98471,25.15864
3868,-10.83726,25.1152
3873,-10.7196,25.07201
3878,-10.61969,25.02906
3883,-10.53164,24.98636
3888,-10.45211,24.94391
3893,-10.37903,24.9017
3898,-10.31102,24.85973
3900,-10.28501,24.84301
3903,-10.24712,24.818
3908,-10.18663,24.77652
3913,-10.12902,24.73528
3918,-10.07388,24.69427
3923,-10.02091,24.6535
3928,-9.969833,24.61297
3933,-9.920451,24.57267
3938,-9.872593,24.53261
3943,-9.826108,24.49278
3948,-9.780879,24.45319
4000,-8.875496,24.03802
4100,-8.186288,23.20147
4200,-7.636461,22.42365
4300,-7.179378,21.70005
4400,-6.791261,21.02697
4500,-6.456886,20.40131
4600,-6.165229,19.82058
4700,-5.593014,19.229
4800,-5.333273,18.65309
4900,-5.10386,18.10355
5000,-4.890369,17.57833
5100,-4.716383,17.07651
5200,-4.551796,16.59647
5300,-4.411985,16.13656
5400,-4.288623,15.69606
5500,-4.180268,15.27384
5600,-4.085308,14.86888
5700,-4.002445,14.48022
5800,-3.930537,14.10695
5900,-3.868577,13.74826
6000,-3.815672,13.40336
6100,-3.771028,13.07153
6200,-3.747177,12.7529
6300,-3.717288,12.44644
6400,-3.693676,12.15117
6500,-3.675838,11.86655
6600,-3.663323,11.59205
6700,-3.655725,11.32718
6800,-3.65268,11.07147
6900,-3.653862,10.8245
7000,-3.658974,10.58587
7100,-3.667754,10.35518
7200,-3.692973,10.133
7300,-3.70866,9.918172
7400,-3.727306,9.710296
7500,-3.748738,9.509064
7600,-3.772803,9.314188
7700,-3.799365,9.125395
7800,-3.847746,8.942866
7900,-3.878862,8.766081
8000,-3.912127,8.594642
8100,-3.947464,8.428327
8200,-3.998738,8.267003
8300,-4.037871,8.110578
8400,-4.078898,7.958678
8500,-4.121785,7.811122
8600,-4.166505,7.667742
8700,-4.213049,7.528379
8800,-4.263678,7.39289
8900,-4.313832,7.261123
9000,-4.364697,7.134562
9100,-4.417167,7.01146
9200,-4.471261,6.891689
9300,-4.527005,6.775124
9400,-4.58443,6.661649
9500,-4.643582,6.55115
9600,-4.70451,6.443522
9700,-4.767277,6.338663
9800,-4.831954,6.236474
9900,-4.898623,6.136864
10000,-4.967663,6.039743
10100,-5.03864,5.945026
10200,-5.111938,5.852633
10300,-5.187699,5.762484
10400,-5.266083,5.674505
10500,-5.347272,5.588624
10600,-5.431471,5.504773
10700,-5.518916,5.422887
10800,-5.610406,5.342906
10900,-5.705198,5.264778
11000,-5.804165,5.188432
11100,-5.907712,5.113814
11200,-6.016246,5.040871
11300,-6.131982,4.969586
11400,-6.252499,4.899878
11500,-6.380071,4.831696
11600,-6.515643,4.764994
11700,-6.660361,4.699729
11800,-6.81565,4.635858
11900,-6.98329,4.57334
12000,-7.165565,4.512136
12100,-7.365558,4.452208
12200,-7.587848,4.39353
12300,-7.836529,4.336058
12400,-8.120387,4.279756
12500,-8.451629,4.224592
12600,-8.850162,4.170534
12700,-9.351839,4.117553
12800,-10.03179,4.065618
12900,-11.09598,4.014702
12938,-11.73231,3.995615
12943,-11.83432,3.993114
12948,-11.94207,3.990616
12953,-12.05624,3.98812
12958,-12.17765,3.985626
12963,-12.30726,3.983135
12968,-12.44626,3.980646
12973,-12.59608,3.97816
12978,-12.75859,3.975677
12983,-12.93611,3.973195
12988,-13.13166,3.970716
12993,-13.34931,3.96824
12998,-13.59464,3.965765
13000,-13.7022,3.964777
13003,-13.87569,3.963294
13008,-14.20459,3.960824
13013,-14.60081,3.958358
13018,-15.09923,3.955893
13023,-15.77094,3.953431
13028,-16.8037,3.950971
13033,-19.12954,3.948514
13038,-18.66969,10.13475
13043,-16.64524,10.12825
13048,-15.66456,10.12175
13053,-15.01069,10.11527
13058,-14.51925,10.10878
13063,-14.12514,10.10231
13068,-13.79607,10.09584
13073,-13.51355,10.08937
13078,-13.266,10.08292
13083,-13.0457,10.07646
13088,-12.84722,10.07002
13093,-12.66662,10.06358
13098,-12.50098,10.05714
13100,-12.43834,10.05457
13103,-12.34796,10.05071
13108,-12.20578,10.04429
13113,-12.07302,10.03787
13118,-11.94852,10.03146
13123,-11.8313,10.02506
13128,-11.72056,10.01866
13133,-11.61564,10.01226
13200,-10.57346,9.927151
13300,-9.638274,9.802046
13400,-9.016306,9.67927
13500,-8.559631,9.558688
13600,-8.206438,9.440249
13700,-7.925482,9.323904
13800,-7.698913,9.209602
13900,-7.515745,9.097299
14000,-7.368952,8.986945
14100,-7.254039,8.878498
14200,-7.168299,8.771915
14300,-7.110453,8.667152
14400,-7.082293,8.564181
14500,-7.081901,8.462958
14600,-7.114468,8.363437
14700,-7.186444,8.265581
14800,-7.309612,8.169353
14900,-7.506956,8.074718
15000,-7.830964,7.98164
15100,-8.450047,7.890086
15103,-8.478352,7.887363
15108,-8.527699,7.882827
15113,-8.580008,7.878295
15118,-8.635624,7.873766
15123,-8.694963,7.869241
15128,-8.758522,7.86472
15133,-8.826906,7.860202
15138,-8.900846,7.85569
15143,-8.981304,7.851179
15148,-9.069459,7.846673
15153,-9.166867,7.84217
15158,-9.275609,7.837671
15163,-9.398561,7.833176
15168,-9.539857,7.828684
15173,-9.70575,7.824196
15178,-9.906368,7.819712
15183,-10.15971,7.815232
15188,-10.50312,7.810755
15193,-11.03629,7.806281
15198,-12.27981,7.801812
15200,-19.89497,7.800025
15203,-11.88218,10.93296
15208,-10.89864,10.92687
15213,-10.41015,10.92078
15218,-10.08177,10.91469
15223,-9.833793,10.90861
15228,-9.634268,10.90254
15233,-9.467242,10.89647
15238,-9.323532,10.89041
15243,-9.197375,10.88435
15248,-9.084918,10.87829
15253,-8.983457,10.87224
15258,-8.891018,10.8662
15263,-8.806136,10.86016
15268,-8.727637,10.85413
15273,-8.654638,10.8481
15278,-8.586421,10.84207
15283,-8.522398,10.83605
15288,-8.462088,10.83004
15293,-8.405087,10.82403
15298,-8.351056,10.81803
15300,-8.330212,10.81563
15400,-7.620308,10.69661
15500,-7.237508,10.57963
15600,-7.014822,10.46455
15700,-6.943008,10.35131
15763,-7.019442,10.28091
15768,-7.032726,10.27535
15773,-7.047565,10.2698
15778,-7.064128,10.26425
15783,-7.082619,10.2587
15788,-7.103282,10.25317
15793,-7.126413,10.24763
15798,-7.152375,10.2421
15800,-7.163651,10.23989
15803,-7.181626,10.23657
15808,-7.214738,10.23105
15813,-7.252479,10.22553
15818,-7.295848,10.22002
15823,-7.346227,10.21451
15828,-7.405589,10.20901
15833,-7.476894,10.20351
15838,-7.564875,10.19801
15843,-7.677819,10.19252
15848,-7.832318,10.18704
15853,-8.070564,10.18156
15858,-8.576334,10.17608
15863,-8.689238,11.76126
15868,-8.076991,11.75554
15873,-7.798182,11.74982
15878,-7.612582,11.74411
15883,-7.471778,11.7384
15888,-7.357438,11.73269
15893,-7.26056,11.72699
15898,-7.176117,11.7213
15900,-7.145083,11.71902
15903,-7.100981,11.7156
15908,-7.033075,11.70991
15913,-6.970953,11.70423
15918,-6.913568,11.69855
15923,-6.860133,11.69287
15928,-6.810047,11.6872
15933,-6.762845,11.68154
15938,-6.718132,11.67587
15943,-6.67561,11.67021
15948,-6.635046,11.66456
15953,-6.596169,11.65891
15958,-6.558864,11.65326
16000,-6.290524,11.60599
16100,-5.824814,11.4946
16200,-5.473437,11.38481
16300,-5.182294,11.27659
16400,-4.930172,11.1699
16500,-4.706217,11.06472
16600,-4.503967,10.96102
16700,-4.321594,10.85878
16800,-4.152118,10.75799
16900,-3.994193,10.6586
17000,-3.861767,10.56105
17100,-3.724159,10.46526
17200,-3.594812,10.3708
17300,-3.47286,10.27766
17400,-3.357573,10.1858
17500,-3.248344,10.09519
17600,-3.144649,10.00582
17700,-3.046034,9.917654
17800,-2.952107,9.830678
17900,-2.862517,9.744864
18000,-2.776959,9.660192
18100,-2.695157,9.576639
18200,-2.616868,9.494186
18300,-2.54187,9.412812
18400,-2.469962,9.332496
18500,-2.400962,9.253219
18600,-2.334706,9.174961
18700,-2.271041,9.097705
18800,-2.20983,9.021434
18900,-2.150941,8.946127
19000,-2.094259,8.871768
19100,-2.039673,8.798342
19200,-1.987082,8.72583
19300,-1.936392,8.65422
19400,-1.887513,8.58349
19500,-1.840365,8.51363
19600,-1.794869,8.444623
19700,-1.750955,8.376454
19800,-1.698938,8.308914
19900,-1.657806,8.241882
20000,-1.618082,8.175634
20100,-1.579713,8.110159
20200,-1.542644,8.045443
20300,-1.506827,7.981475
20400,-1.472213,7.918242
20500,-1.438757,7.855733
20600,-1.406408,7.793937
20700,-1.394611,7.733609
20800,-1.364791,7.674179
20900,-1.335937,7.615454
21000,-1.308015,7.557425
21100,-1.280991,7.50008
21200,-1.254834,7.443409
21300,-1.229512,7.387402
21400,-1.204996,7.332045
21500,-1.181258,7.27733
21600,-1.158273,7.223247
21700,-1.136014,7.169785
21800,-1.114457,7.116936
21900,-1.09358,7.064689
22000,-1.073359,7.013034
22100,-1.053773,6.961963
22200,-1.034803,6.911467
22300,-1.016428,6.861537
22400,-0.9986286,6.812164
22500,-0.9813879,6.763339
22600,-0.9646881,6.715055
22700,-0.9485125,6.667303
22800,-0.9328453,6.620076
22900,-0.9176704,6.573365
23000,-0.9029732,6.527162
23100,-0.8887395,6.481461
23200,-0.8749554,6.436253
23300,-0.8616078,6.391532
23400,-0.8486835,6.34729
23500,-0.8361703,6.303519
23600,-0.8240563,6.260215
23700,-0.8123301,6.217369
23800,-0.8009806,6.174976
23900,-0.7899969,6.133027
24000,-0.7793688,6.091518
24100,-0.7690862,6.050441
24200,-0.7591395,6.009791
24300,-0.7495196,5.969563
24400,-0.7402171,5.929749
24500,-0.7312234,5.890343
24600,-0.7225301,5.851341
24700,-0.7141291,5.812736
24800,-0.7060125,5.774524
24900,-0.6981726,5.736698