Energy,f’,f’’
1000,-31.97428,30.75565
1100,-29.50444,28.53168
1200,-27.61695,27.07104
1300,-25.97748,25.23985
1400,-24.80924,23.58294
1500,-23.90657,22.08216
1600,-23.25157,20.69778
1700,-22.79789,19.42689
1800,-22.51041,18.25809
1900,-22.37539,17.18054
2000,-22.38257,16.18538
2100,-22.52826,15.26487
2200,-22.81564,14.41218
2300,-23.2564,13.62125
2400,-24.14418,12.91631
2500,-25.18504,12.2836
2600,-26.32689,11.69884
2700,-27.95692,11.1546
2800,-30.60322,10.64711
2900,-36.71459,10.17307
2902,-36.93545,10.16391
2907,-37.52148,10.14106
2912,-38.16147,10.11829
2917,-38.86376,10.09559
2922,-39.63834,10.07297
2927,-40.49761,10.05042
2932,-41.45676,10.02794
2937,-42.53506,10.00554
2942,-43.75687,9.98322
2947,-45.154,9.960967
2952,-46.76828,9.938788
2957,-48.65675,9.916681
2962,-50.89864,9.894648
2967,-53.60929,9.872684
2972,-56.96336,9.850795
2977,-61.24445,9.828976
2982,-66.95406,9.807227
2987,-75.10893,9.78555
2992,-88.31825,9.763944
2997,-118.2232,9.742408
3000,-190.6488,110.6871
3002,-121.5999,107.5651
3007,-79.97753,100.2339
3012,-60.98831,93.52724
3017,-49.03288,87.3871
3022,-40.69323,81.7603
3027,-34.59387,76.60001
3032,-30.02594,71.86308
3037,-26.57201,67.51154
3039,-25.43869,65.87076
3042,-23.96298,63.51027
3044,-23.11304,62.00093
3047,-22.0161,59.82838
3049,-21.39233,58.43847
3052,-20.60169,56.43724
3054,-20.16316,55.15656
3057,-19.62612,53.31162
3059,-19.34269,52.13033
3062,-19.02072,50.42808
3064,-18.87055,49.33784
3067,-18.73575,47.76596
3069,-18.70321,46.7587
3072,-18.73625,45.30605
3074,-18.81097,44.37491
3077,-18.99982,43.03135
3079,-19.17611,42.1697
3082,-19.51565,40.92605
3084,-19.7924,40.12815
3087,-20.28457,38.97617
3089,-20.66569,38.23672
3092,-21.32077,37.16862
3094,-21.81632,36.4828
3097,-22.65502,35.49186
3099,-23.28336,34.85529
3100,-23.61996,34.54403
3104,-25.13365,33.34374
3109,-27.47793,31.93895
3114,-30.506,30.63223
3119,-34.56551,29.41594
3124,-40.38421,28.28284
3129,-49.90194,27.22654
3134,-72.80537,26.24101
3139,-66.72576,89.99872
3144,-42.25076,84.50764
3149,-30.42266,79.45216
3154,-22.88351,74.7935
3159,-17.59784,70.49745
3164,-13.72097,66.53224
3169,-10.81013,62.86983
3174,-8.599662,59.48409
3179,-6.916872,56.35197
3184,-5.641741,53.45193
3189,-4.687807,50.76495
3194,-3.990329,48.27322
3199,-3.499884,45.96102
3200,-3.423065,45.51872
3204,-3.177788,43.81358
3209,-2.993426,41.81776
3214,-2.922193,39.96155
3219,-2.944117,38.23375
3224,-3.04286,36.62445
3229,-3.20497,35.12429
3234,-3.419277,33.72499
3300,-8.291472,21.81831
3400,-15.85051,14.91289
3500,-22.1951,12.48679
3566,-26.41133,11.86692
3571,-26.75402,11.84132
3576,-27.10227,11.81847
3581,-27.45679,11.79832
3586,-27.81833,11.78086
3591,-28.18782,11.76606
3596,-28.56631,11.75392
3600,-28.87645,11.74611
3601,-28.95512,11.74442
3606,-29.35579,11.73756
3611,-29.77034,11.73335
3616,-30.20128,11.73178
3621,-30.65198,11.73288
3626,-31.12698,11.73665
3631,-31.63283,11.74312
3636,-32.17925,11.75231
3641,-32.78202,11.76426
3646,-33.46901,11.779
3651,-34.29779,11.79658
3656,-35.42202,11.81703
3661,-37.64421,11.84041
3666,-37.33041,16.69675
3671,-36.12409,16.70992
3676,-35.68935,16.72638
3681,-35.50841,16.74621
3686,-35.45795,16.76949
3691,-35.48873,16.79631
3696,-35.57611,16.82676
3700,-35.67711,16.8538
3701,-35.70603,16.86093
3706,-35.86976,16.89894
3711,-36.06154,16.94089
3716,-36.2774,16.98691
3721,-36.51451,17.03712
3726,-36.77085,17.09167
3731,-37.0449,17.15069
3736,-37.33558,17.21435
3741,-37.64201,17.2828
3746,-37.96366,17.35623
3751,-38.30005,17.4348
3756,-38.65093,17.51874
3761,-39.0161,17.60824
3800,-42.3595,18.5246
3900,-24.67889,23.64492
4000,-28.72875,24.42824
4100,-13.03591,26.31342
4200,-12.52465,25.32306
4230,-12.4509,25.04188
4235,-12.44386,24.9957
4240,-12.43865,24.94972
4245,-12.43542,24.90393
4250,-12.43438,24.85833
4255,-12.43577,24.81291
4260,-12.43988,24.76769
4265,-12.44709,24.72266
4270,-12.45784,24.67782
4275,-12.47272,24.63316
4280,-12.4925,24.58868
4285,-12.51818,24.5444
4290,-12.5512,24.5003
4295,-12.59359,24.45638
4300,-12.64841,24.41264
4305,-12.72065,24.36909
4310,-12.81921,24.32572
4315,-12.96244,24.28253
4320,-13.19951,24.23951
4325,-13.78714,24.19668
4330,-13.56207,25.69926
4335,-13.053,25.65633
4340,-12.78805,25.61359
4345,-12.60226,25.57102
4350,-12.45633,25.52862
4355,-12.33458,25.4864
4360,-12.22913,25.44436
4365,-12.13547,25.40249
4370,-12.05074,25.36079
4375,-11.97305,25.31926
4380,-11.90108,25.2779
4385,-11.83386,25.23671
4390,-11.77067,25.1957
4395,-11.71092,25.15485
4400,-11.65419,25.11417
4405,-11.60013,25.07366
4410,-11.54845,25.03332
4415,-11.49891,24.99314
4420,-11.45131,24.95313
4425,-11.40551,24.91328
4500,-10.8806,24.33499
4555,-10.63442,23.93335
4560,-10.61855,23.89774
4565,-10.60401,23.86228
4570,-10.59089,23.82697
4575,-10.57933,23.79181
4580,-10.56947,23.75679
4585,-10.56149,23.72192
4590,-10.55564,23.6872
4595,-10.55219,23.65263
4600,-10.55154,23.61819
4605,-10.55416,23.58391
4610,-10.56074,23.54976
4615,-10.57218,23.51576
4620,-10.58982,23.48191
4625,-10.61567,23.44819
4630,-10.65945,23.41463
4635,-10.71408,23.38121
4640,-10.79802,23.34793
4645,-10.94354,23.3148
4650,-11.31905,23.2818
4655,-11.16151,24.26221
4660,-10.81791,24.22926
4665,-10.63433,24.19645
4670,-10.50264,24.16378
4675,-10.3971,24.13125
4680,-10.30741,24.09885
4685,-10.2284,24.06659
4690,-10.1571,24.03447
4695,-10.09164,24.00248
4700,-10.03079,23.97063
4705,-9.973661,23.93892
4710,-9.919615,23.90733
4715,-9.868169,23.87588
4720,-9.818958,23.84457
4725,-9.77168,23.81339
4730,-9.726104,23.78234
4735,-9.682035,23.75142
4740,-9.639322,23.72064
4745,-9.597823,23.68999
4750,-9.557428,23.65947
4800,-8.688217,23.32062
4900,-8.063573,22.64346
5000,-7.556241,21.99775
5100,-7.121896,21.38163
5200,-6.744274,20.79314
5300,-6.412197,20.23058
5400,-6.118002,19.69241
5500,-5.856015,19.17717
5600,-5.621826,18.68353
5700,-5.394772,18.208
5800,-5.205087,17.7506
5900,-5.034709,17.31102
6000,-4.857559,16.88828
6100,-4.723835,16.47966
6200,-4.600448,16.08656
6300,-4.48134,15.70771
6400,-4.382202,15.34204
6500,-4.293653,14.98941
6600,-4.214771,14.64919
6700,-4.144736,14.32079
6800,-4.082815,14.00363
6900,-4.027988,13.6972
7000,-3.980396,13.40099
7100,-3.939143,13.11455
7200,-3.903752,12.83743
7300,-3.873791,12.56922
7400,-3.860097,12.31015
7500,-3.840059,12.05945
7600,-3.824333,11.81657
7700,-3.81263,11.58117
7800,-3.804685,11.35293
7900,-3.800259,11.13156
8000,-3.799134,10.91677
8100,-3.801115,10.7083
8200,-3.806022,10.50589
8300,-3.813695,10.30931
8400,-3.823992,10.11832
8500,-3.836784,9.9327
8600,-3.851964,9.752256
8700,-3.879967,9.577095
8800,-3.899886,9.40709
8900,-3.921988,9.241709
9000,-3.944241,9.082593
9100,-3.968158,8.927785
9200,-3.993669,8.777125
9300,-4.020712,8.630459
9400,-4.049716,8.487672
9500,-4.079752,8.348605
9600,-4.111169,8.213127
9700,-4.143929,8.081113
9800,-4.177998,7.952438
9900,-4.213351,7.82699
10000,-4.249966,7.704654
10100,-4.287825,7.585327
10200,-4.326918,7.468909
10300,-4.367237,7.355299
10400,-4.408778,7.244408
10500,-4.451547,7.136144
10600,-4.495547,7.030422
10700,-4.540792,6.927163
10800,-4.587297,6.826285
10900,-4.636654,6.727729
11000,-4.685791,6.631416
11100,-4.736265,6.537269
11200,-4.788116,6.445222
11300,-4.841392,6.35521
11400,-4.898312,6.267192
11500,-4.954616,6.181097
11600,-5.012506,6.096859
11700,-5.072053,6.014425
11800,-5.133342,5.93374
11900,-5.19646,5.854754
12000,-5.261512,5.777417
12100,-5.328609,5.701682
12200,-5.39788,5.627505
12300,-5.469467,5.554839
12400,-5.54353,5.483645
12500,-5.62025,5.413879
12600,-5.699832,5.345504
12700,-5.782579,5.278482
12800,-5.868609,5.212774
12900,-5.958295,5.148347
13000,-6.052299,5.085166
13100,-6.150888,5.023217
13200,-6.253832,4.962448
13300,-6.362177,4.902829
13400,-6.476563,4.84433
13500,-6.597755,4.786921
13600,-6.728938,4.73058
13700,-6.866671,4.67532
13800,-7.014679,4.621068
13900,-7.174668,4.567802
14000,-7.348877,4.515494
14100,-7.54023,4.464122
14200,-7.752665,4.413662
14300,-7.991661,4.364093
14400,-8.265139,4.315393
14500,-8.585204,4.267541
14600,-8.971664,4.220516
14700,-9.460361,4.174299
14800,-10.12694,4.128871
14900,-11.18181,4.084213
14934,-11.74282,4.069201
14939,-11.84177,4.067001
14944,-11.94631,4.064803
14949,-12.05708,4.062606
14954,-12.17487,4.060411
14959,-12.30061,4.058219
14964,-12.43549,4.056028
14969,-12.5809,4.053839
14974,-12.73862,4.051651
14979,-12.9109,4.049466
14984,-13.10069,4.047283
14989,-13.31192,4.045101
14994,-13.55003,4.042921
14999,-13.82276,4.040743
15000,-13.88243,4.040308
15004,-14.14196,4.038567
15009,-14.52659,4.036392
15014,-15.01033,4.03422
15019,-15.66223,4.032049
15024,-16.66451,4.02988
15029,-18.92179,4.027713
15034,-18.47486,10.02917
15039,-16.51234,10.02382
15044,-15.56148,10.01847
15049,-14.92753,10.01313
15054,-14.451,10.00779
15059,-14.06892,10.00246
15064,-13.74988,9.997123
15069,-13.47595,9.991795
15074,-13.2359,9.986469
15079,-13.02225,9.981148
15084,-12.82977,9.975831
15089,-12.65458,9.970517
15094,-12.49384,9.965206
15099,-12.34534,9.959899
15100,-12.31694,9.958838
15104,-12.20735,9.954596
15109,-12.07848,9.949296
15114,-11.95758,9.943999
15119,-11.84374,9.938707
15124,-11.73619,9.933419
15129,-11.63424,9.928134
15200,-10.57299,9.853467
15300,-9.672022,9.749527
15400,-9.064155,9.646983
15500,-8.610112,9.545811
15600,-8.251819,9.445987
15700,-7.959615,9.347491
15800,-7.716303,9.250302
15900,-7.516179,9.154426
16000,-7.341843,9.059884
16100,-7.193359,8.966588
16200,-7.067186,8.874516
16300,-6.960774,8.783652
16400,-6.8723,8.693974
16500,-6.800515,8.605462
16600,-6.744639,8.518101
16700,-6.704318,8.431871
16800,-6.679615,8.346758
16900,-6.671042,8.262739
17000,-6.679658,8.179801
17100,-6.707221,8.097925
17200,-6.756495,8.017097
17300,-6.83178,7.937301
17400,-6.93997,7.858518
17500,-7.09275,7.780734
17600,-7.312013,7.703935
17700,-7.646265,7.628105
17800,-8.245095,7.553231
17809,-8.327049,7.546538
17814,-8.376061,7.542824
17819,-8.427938,7.539111
17824,-8.482972,7.535401
17829,-8.541602,7.531693
17834,-8.604258,7.527988
17839,-8.671564,7.524284
17844,-8.74418,7.520584
17849,-8.82305,7.516885
17854,-8.909247,7.513189
17859,-9.004271,7.509497
17864,-9.110126,7.505805
17869,-9.22944,7.502116
17874,-9.366176,7.498428
17879,-9.526052,7.494745
17884,-9.718554,7.491062
17889,-9.960018,7.487383
17894,-10.28393,7.483706
17899,-10.77687,7.48003
17900,-10.91502,7.479296
17904,-11.83891,7.476358
17909,-11.84591,10.52382
17914,-10.77636,10.51896
17919,-10.27774,10.5141
17924,-9.948832,10.50925
17929,-9.702679,10.5044
17934,-9.505923,10.49955
17939,-9.341913,10.49471
17944,-9.201205,10.48987
17949,-9.078056,10.48503
17954,-8.968481,10.48019
17959,-8.869843,10.47536
17964,-8.780089,10.47053
17969,-8.69781,10.4657
17974,-8.621802,10.46088
17979,-8.55123,10.45606
17984,-8.48535,10.45124
17989,-8.423557,10.44642
17994,-8.36542,10.44161
17999,-8.310498,10.4368
18000,-8.29988,10.43584
18004,-8.258496,10.432
18100,-7.586731,10.34025
18200,-7.199218,10.24577
18300,-6.96253,10.15239
18400,-6.839083,10.06011
18500,-6.85564,9.968908
18542,-6.935401,9.930922
18547,-6.950122,9.926412
18552,-6.966337,9.921905
18557,-6.984221,9.917401
18562,-7.003983,9.912898
18567,-7.025851,9.9084
18572,-7.050134,9.903902
18577,-7.077179,9.899408
18582,-7.107461,9.894916
18587,-7.141539,9.890428
18592,-7.180182,9.885942
18597,-7.224423,9.881457
18600,-7.254207,9.878769
18602,-7.275632,9.876977
18607,-7.335867,9.872498
18612,-7.408136,9.868023
18617,-7.497439,9.863548
18622,-7.612521,9.859078
18627,-7.771674,9.854609
18632,-8.023482,9.850145
18637,-8.622153,9.845683
18642,-8.417857,11.37098
18647,-7.930301,11.36633
18652,-7.683912,11.36168
18657,-7.515642,11.35704
18662,-7.386488,11.35239
18667,-7.281019,11.34775
18672,-7.191355,11.34311
18677,-7.113091,11.33847
18682,-7.043386,11.33384
18687,-6.98034,11.3292
18692,-6.922685,11.32457
18697,-6.869414,11.31994
18700,-6.839263,11.31717
18702,-6.819847,11.31532
18707,-6.77339,11.3107
18712,-6.72964,11.30608
18717,-6.688228,11.30146
18722,-6.648855,11.29684
18727,-6.611316,11.29223
18732,-6.575386,11.28762
18737,-6.540928,11.28301
18800,-6.196907,11.22521
18900,-5.80065,11.13426
19000,-5.494659,11.04425
19100,-5.238462,10.95518
19200,-5.015123,10.86703
19300,-4.815708,10.77979
19400,-4.634809,10.69344
19500,-4.46886,10.60798
19600,-4.360846,10.52479
19700,-4.2187,10.44345
19800,-4.085629,10.36301
19900,-3.960511,10.28345
20000,-3.842455,10.20477
20100,-3.730723,10.12695
20200,-3.627764,10.05
20300,-3.52695,9.973901
20400,-3.430886,9.898625
20500,-3.33919,9.824159
20600,-3.25153,9.750487
20700,-3.167612,9.677601
20800,-3.087179,9.605488
20900,-3.009997,9.534135
21000,-2.935862,9.463531
21100,-2.864588,9.393667
21200,-2.796007,9.324532
21300,-2.729968,9.256114
21400,-2.666329,9.188402
21500,-2.604966,9.121388
21600,-2.54576,9.055061
21700,-2.488606,8.989411
21800,-2.433404,8.924431
21900,-2.380061,8.860108
22000,-2.328493,8.796434
22100,-2.278621,8.7334
22200,-2.23037,8.670998
22300,-2.183673,8.60922
22400,-2.138464,8.548054
22500,-2.094683,8.487494
22600,-2.052273,8.427531
22700,-2.01118,8.368158
22800,-1.971356,8.309368
22900,-1.932751,8.251151
23000,-1.895321,8.1935
23100,-1.859023,8.136407
23200,-1.823814,8.079865
23300,-1.803585,8.023998
23400,-1.770657,7.969146
23500,-1.738719,7.914836
23600,-1.707713,7.861061
23700,-1.677608,7.807813
23800,-1.648374,7.755086
23900,-1.619982,7.702871
24000,-1.592405,7.651163
24100,-1.565617,7.599954
24200,-1.539594,7.549237
24300,-1.535909,7.49963
24400,-1.511738,7.450796
24500,-1.488236,7.402457
24600,-1.466622,7.354609
24700,-1.444392,7.307248
24800,-1.423262,7.260364
24900,-1.402226,7.213949