Energy,f’,f’’
1000,-1.546897,3.586705
1100,-0.7592142,3.141146
1200,-0.3114363,2.755257
1300,-3.1802926E-02,2.421758
1400,0.1484236,2.133625
1500,0.1908214,1.893196
1600,0.2631764,1.702406
1700,0.3117324,1.538988
1800,0.3438735,1.397896
1900,0.3644597,1.275208
2000,0.3767894,1.167834
2100,0.3831569,1.073313
2200,0.385189,0.9896618
2300,0.3840579,0.9152703
2400,0.3806186,0.8488163
2500,0.3755015,0.7892079
2600,0.3691739,0.7355353
2700,0.3619838,0.6870356
2800,0.3541889,0.6430656
2900,0.3459758,0.6030794
3000,0.3374693,0.5666111
3100,0.32911,0.5334375
3200,0.3207462,0.5030252
3300,0.3124419,0.4750767
3400,0.304245,0.4493336
3500,0.2952795,0.4255943
3600,0.287279,0.403697
3700,0.2794851,0.3834216
3800,0.2719087,0.3646118
3900,0.2645557,0.3471298
4000,0.2574289,0.3308536
4100,0.2505284,0.3156751
4200,0.2438521,0.3014978
4300,0.2373965,0.2882357
4400,0.2311572,0.2758121
4500,0.2251286,0.2641578
4600,0.219305,0.2532109
4700,0.2136801,0.2429155
4800,0.2082472,0.2332211
4900,0.2029999,0.224082
5000,0.1979315,0.2154568
5100,0.1930354,0.2073079
5200,0.1883051,0.199601
5300,0.1837343,0.1923049
5400,0.1793167,0.1853912
5500,0.1750464,0.1788336
5600,0.1709175,0.1726085
5700,0.1669244,0.1666937
5800,0.1630616,0.1610691
5900,0.1593241,0.1557163
6000,0.1557067,0.1506182
6100,0.1522046,0.1457588
6200,0.1488133,0.1411238
6300,0.1455283,0.1366996
6400,0.1423455,0.1324737
6500,0.1392608,0.1284346
6600,0.1362703,0.1245715
6700,0.1333703,0.1208744
6800,0.1305574,0.1173341
6900,0.1278281,0.1139419
7000,0.1251793,0.1106897
7100,0.1226078,0.1075701
7200,0.1201108,0.104576
7300,0.1176853,0.1017007
7400,0.1153288,9.8938279E-02
7500,0.1130386,9.628287E-02
7600,0.1108123,9.3729086E-02
7700,0.1086476,9.127187E-02
7800,0.1065422,8.8906474E-02
7900,0.1044939,8.6628452E-02
8000,0.1025008,8.4433585E-02
8100,0.1005608,8.2317933E-02
8200,9.8672062E-02,8.0277793E-02
8300,9.6832767E-02,7.830964E-02
8400,9.5034733E-02,7.6410234E-02
8500,9.328939E-02,7.4576385E-02
8600,9.1588534E-02,7.2805174E-02
8700,8.9930661E-02,7.1093827E-02
8800,8.831428E-02,6.9439687E-02
8900,8.6738035E-02,6.7840301E-02
9000,8.5209906E-02,6.6305742E-02
9100,8.3719686E-02,6.4820923E-02
9200,8.226613E-02,6.3383751E-02
9300,8.0848016E-02,6.1992206E-02
9400,7.9464212E-02,6.0644433E-02
9500,7.8113593E-02,5.9338603E-02
9600,7.6795109E-02,5.8073036E-02
9700,7.5507753E-02,5.6846119E-02
9800,7.4250512E-02,5.5656292E-02
9900,7.3022477E-02,5.4502118E-02
10000,7.1822725E-02,5.3382181E-02
10100,7.0650384E-02,5.2295167E-02
10200,6.9504634E-02,5.123983E-02
10300,6.838464E-02,5.0214943E-02
10400,6.7289665E-02,4.9219377E-02
10500,6.6218928E-02,4.8252031E-02
10600,6.5171719E-02,4.7311865E-02
10700,6.4147361E-02,4.6397891E-02
10800,6.3145168E-02,4.5509145E-02
10900,6.2164519E-02,4.4644736E-02
11000,6.1204769E-02,4.3803778E-02
11100,6.0265332E-02,4.2985454E-02
11200,5.9345644E-02,4.2188972E-02
11300,5.8445126E-02,4.1413564E-02
11400,5.756326E-02,4.0658515E-02
11500,5.6699514E-02,3.9923113E-02
11600,5.5853397E-02,3.9206702E-02
11700,5.5024434E-02,3.8508654E-02
11800,5.4212142E-02,3.7828334E-02
11900,5.3416084E-02,3.7165176E-02
12000,5.2635815E-02,3.65186E-02
12100,5.1870916E-02,3.5888072E-02
12200,5.1120993E-02,3.5273079E-02
12300,5.0385639E-02,3.4673117E-02
12400,4.9664482E-02,3.408771E-02
12500,4.8957143E-02,3.3516396E-02
12600,4.8263274E-02,3.2958735E-02
12700,4.7582537E-02,3.2414306E-02
12800,4.6914585E-02,3.1882692E-02
12900,4.6259105E-02,3.136351E-02
13000,4.5615781E-02,3.0856371E-02
13100,4.4984303E-02,3.0360918E-02
13200,4.4364396E-02,2.9876804E-02
13300,4.3755759E-02,2.9403683E-02
13400,4.3158121E-02,2.8941238E-02
13500,4.2571217E-02,2.8489148E-02
13600,4.1994784E-02,2.8047115E-02
13700,4.1428577E-02,2.7614852E-02
13800,4.0872343E-02,2.7192071E-02
13900,4.0325858E-02,2.6778508E-02
14000,3.9788883E-02,2.6373895E-02
14100,3.9261196E-02,2.5977982E-02
14200,3.8742587E-02,2.5590533E-02
14300,3.8232841E-02,2.5211301E-02
14400,3.7731756E-02,2.484007E-02
14500,3.7239134E-02,2.447661E-02
14600,3.675478E-02,2.4120716E-02
14700,3.6278512E-02,2.3772186E-02
14800,3.5810146E-02,2.3430813E-02
14900,3.5349511E-02,2.3096416E-02
15000,3.4896426E-02,2.2768801E-02
15100,3.4450728E-02,2.2447791E-02
15200,3.4012258E-02,2.213322E-02
15300,3.3580858E-02,2.1824909E-02
15400,3.3156373E-02,2.1522706E-02
15500,3.2738652E-02,2.1226447E-02
15600,3.2327551E-02,2.0935982E-02
15700,3.1922936E-02,2.0651169E-02
15800,3.1524662E-02,2.0371854E-02
15900,3.1132596E-02,2.0097911E-02
16000,3.0746607E-02,1.9829197E-02
16100,3.0366568E-02,1.9565584E-02
16200,2.9992355E-02,1.9306948E-02
16300,2.9456828E-02,1.9053496E-02
16400,2.909424E-02,1.8805994E-02
16500,2.8737182E-02,1.8563092E-02
16600,2.8385516E-02,1.8324681E-02
16700,2.8039129E-02,1.8090652E-02
16800,2.7697923E-02,1.7860904E-02
16900,2.7361779E-02,1.7635329E-02
17000,2.7030602E-02,1.7413829E-02
17100,2.6704296E-02,1.7196311E-02
17200,2.6382763E-02,1.6982678E-02
17300,2.6065916E-02,1.6772848E-02
17400,2.5753651E-02,1.6566722E-02
17500,2.5445882E-02,1.6364219E-02
17600,2.5142526E-02,1.6165257E-02
17700,2.4843497E-02,1.5969753E-02
17800,2.4548717E-02,1.5777636E-02
17900,2.4258094E-02,1.5588821E-02
18000,2.3971554E-02,1.5403235E-02
18100,2.368902E-02,1.522081E-02
18200,2.3410417E-02,1.5041472E-02
18300,2.3135677E-02,1.486516E-02
18400,2.2864716E-02,1.4691798E-02
18500,2.2597473E-02,1.4521327E-02
18600,2.2333875E-02,1.4353682E-02
18700,2.2073857E-02,1.4188805E-02
18800,2.181736E-02,1.4026636E-02
18900,2.1564309E-02,1.3867114E-02
19000,2.1314645E-02,1.3710183E-02
19100,2.106831E-02,1.355579E-02
19200,2.0825243E-02,1.3403882E-02
19300,2.0585388E-02,1.3254409E-02
19400,2.0348683E-02,1.3107314E-02
19500,2.0115072E-02,1.2962551E-02
19600,1.9884506E-02,1.2820072E-02
19700,1.9656926E-02,1.2679829E-02
19800,1.943229E-02,1.254178E-02
19900,1.9210534E-02,1.2405876E-02
20000,1.8991614E-02,1.2272074E-02
20100,1.8775478E-02,1.2140334E-02
20200,1.8562082E-02,1.2010612E-02
20300,1.8351374E-02,1.1882871E-02
20400,1.8143253E-02,1.1757069E-02
20500,1.7891156E-02,1.163324E-02
20600,1.7688403E-02,1.1511343E-02
20700,1.7488219E-02,1.1391272E-02
20800,1.7290518E-02,1.1272993E-02
20900,1.7095251E-02,1.1156467E-02
21000,1.6902376E-02,1.1041662E-02
21100,1.6711857E-02,1.0928545E-02
21200,1.6523652E-02,1.0817084E-02
21300,1.6337728E-02,1.070725E-02
21400,1.6154042E-02,1.0599006E-02
21500,1.5972557E-02,1.0492326E-02
21600,1.5793242E-02,1.0387179E-02
21700,1.5616059E-02,1.0283538E-02
21800,1.5440979E-02,1.0181377E-02
21900,1.5267963E-02,1.0080662E-02
22000,1.5096977E-02,9.9813705E-03
22100,1.4927994E-02,9.8834755E-03
22200,1.476098E-02,9.7869514E-03
22300,1.4595907E-02,9.6917758E-03
22400,1.443274E-02,9.597919E-03
22500,1.4271451E-02,9.5053613E-03
22600,1.4112012E-02,9.4140768E-03
22700,1.3954393E-02,9.3240449E-03
22800,1.379857E-02,9.2352433E-03
22900,1.3644511E-02,9.1476468E-03
23000,1.3492189E-02,9.0612378E-03
23100,1.3341581E-02,8.9759929E-03
23200,1.3192657E-02,8.8918926E-03
23300,1.3045399E-02,8.8089183E-03
23400,1.2899773E-02,8.7270476E-03
23500,1.275576E-02,8.6462628E-03
23600,1.2613334E-02,8.5665453E-03
23700,1.2472472E-02,8.4878765E-03
23800,1.2333154E-02,8.4102396E-03
23900,1.2195352E-02,8.333615E-03
24000,1.2059045E-02,8.257986E-03
24100,1.1924213E-02,8.1833368E-03
24200,1.1790833E-02,8.1096496E-03
24300,1.1658889E-02,8.0369106E-03
24400,1.1528352E-02,7.9651E-03
24500,1.1399208E-02,7.8942059E-03
24600,1.1271433E-02,7.8242105E-03
24700,1.114501E-02,7.7551012E-03
24800,1.1019921E-02,7.6868637E-03
24900,1.0896144E-02,7.6194806E-03